##NAMES=Borocookeite
##RRUFFID=R080076
##IDEAL CHEMISTRY=LiAl_4_(Si_3_B)O_10_(OH)_8_
##LOCALITY=Malkhan Range, Central Transbaikal Region, Russia
##OWNER=RRUFF
##SOURCE=Michael Scott
##DESCRIPTION=Cream-colored earthy coating on tourmaline crystal
##DIFFRACTION SAMPLE DESCRIPTION=Powder, using Mo radiation
##STATUS=The identification of this mineral is not yet confirmed.
##URL=rruff.info/R080076
5.430000, 0.0000000E+00
5.450000, 5.155501
5.470000, 0.3297490
5.490000, 2.625626
5.510000, 9.292589
5.530000, 20.53814
5.550000, 39.42768
5.570000, 60.92494
5.590000, 85.60044
5.610000, 118.2052
5.630000, 147.4836
5.650000, 178.2683
5.670000, 210.1102
5.690000, 236.9095
5.710000, 271.8444
5.730000, 319.8528
5.750000, 363.2906
5.770000, 381.9633
5.790000, 387.3255
5.810000, 390.9918
5.830000, 389.5895
5.850000, 374.2185
5.870000, 352.3335
5.890000, 328.2767
5.910000, 280.6090
5.930000, 237.6612
5.950000, 216.9523
5.970000, 180.3657
5.990000, 142.3670
6.010000, 115.2430
6.030000, 89.22130
6.050000, 71.25134
6.070000, 53.72193
6.090000, 31.28740
6.110000, 16.03879
6.130000, 6.701584
6.150000, 1.434056
6.170000, 1.954865
6.190000, 0.4025650
6.210000, 6.380954
6.230000, 10.33299
6.250000, 4.166817
6.270000, 1.107283
6.290000, 1.101084
6.310000, 1.968160
6.330000, 0.4556940
6.350000, 0.2887250
6.370000, 0.5885020
6.390000, 7.062519
6.410000, 10.50983
6.430000, 13.59106
6.450000, 18.26510
6.470000, 26.19023
6.490000, 33.23616
6.510000, 35.65808
6.530000, 39.86749
6.550000, 43.39470
6.570000, 46.48399
6.590000, 46.01321
6.610000, 48.29129
6.630000, 56.88093
6.650000, 56.80158
6.670000, 49.73309
6.690000, 40.81738
6.710000, 40.49614
6.730000, 49.14219
6.750000, 59.74627
6.770000, 59.86328
6.790000, 54.49270
6.810000, 55.54726
6.830000, 55.93723
6.850000, 50.55942
6.870000, 46.91451
6.890000, 43.18999
6.910000, 37.98419
6.930000, 31.12980
6.950000, 26.93016
6.970000, 28.46181
6.990000, 31.01688
7.010000, 34.03343
7.030000, 34.23544
7.050000, 25.64454
7.070000, 20.51772
7.090000, 19.61507
7.110000, 9.778806
7.130000, 7.726688
7.150000, 12.75117
7.170000, 11.50152
7.190000, 9.087898
7.210000, 13.24168
7.230000, 12.11415
7.250000, 5.926522
7.270000, 5.343981
7.290000, 0.4244600
7.310000, 0.9203640
7.330000, 0.4127760
7.350000, 1.149050
7.370000, 4.760555
7.390000, 0.2749610
7.410000, 1.564064
7.430000, 1.603247
7.450000, 2.116400
7.470000, 1.306064
7.490000, 1.384361
7.510000, 2.413439
7.530000, 1.510648
7.550000, 0.1744700
7.570000, 2.717522
7.590000, 2.124431
7.610000, 3.315249
7.630000, 1.686588
7.650000, 2.983985
7.670000, 0.4208180
7.690000, 1.902504
7.710000, 1.419271
7.730000, 0.4197280
7.750000, 1.197990
7.770000, 0.2553750
7.790000, 1.830760
7.810000, 1.322496
7.830000, 5.303728
7.850000, 3.173861
7.870000, 2.563254
7.890000, 4.543057
7.910000, 0.2870410
7.930000, 4.943338
7.950000, 4.800195
7.970000, 5.759085
7.990000, 1.891868
8.010000, 6.305098
8.030000, 4.206149
8.050000, 1.617574
8.070000, 5.881537
8.090000, 2.341385
8.110000, 3.318174
8.130000, 0.7930090
8.150000, 4.169448
8.170000, 1.778595
8.190000, 2.534638
8.210000, 5.291913
8.230000, 3.863264
8.250000, 6.540586
8.270000, 3.887098
8.290000, 4.720993
8.310000, 13.87815
8.330000, 16.35206
8.350000, 19.25070
8.370000, 19.06583
8.390000, 25.11497
8.410000, 36.03101
8.430000, 44.58416
8.450000, 60.04372
8.470000, 87.64251
8.490000, 134.4964
8.510000, 183.2728
8.530000, 242.4659
8.550000, 320.7299
8.570000, 399.6358
8.590000, 481.1784
8.610000, 570.6375
8.630000, 665.2237
8.650000, 735.7344
8.670000, 790.1443
8.690000, 846.7000
8.710000, 879.7141
8.730000, 892.8251
8.750000, 886.4930
8.770000, 838.7831
8.790000, 785.9412
8.810000, 722.1411
8.830000, 662.7666
8.850000, 600.5409
8.870000, 531.9208
8.890000, 468.3371
8.910000, 406.0103
8.930000, 371.9558
8.950000, 357.2697
8.970000, 357.7639
8.990000, 382.0274
9.010000, 422.8823
9.030000, 473.7730
9.050000, 553.7883
9.070000, 627.8436
9.090000, 713.5907
9.110000, 809.1976
9.130000, 922.8538
9.150000, 1017.998
9.170000, 1113.253
9.190000, 1215.130
9.210000, 1302.968
9.230000, 1388.877
9.250000, 1433.438
9.270000, 1464.639
9.290000, 1487.745
9.310000, 1480.687
9.330000, 1456.808
9.350000, 1431.793
9.370000, 1390.018
9.390000, 1360.274
9.410000, 1324.578
9.430000, 1289.584
9.450000, 1266.488
9.470000, 1240.955
9.490000, 1203.916
9.510000, 1163.818
9.530000, 1143.080
9.550000, 1120.530
9.570000, 1101.241
9.590000, 1084.127
9.610000, 1054.913
9.630000, 1020.308
9.650000, 1005.512
9.670000, 989.1998
9.690000, 973.6094
9.710000, 963.6304
9.730000, 956.7507
9.750000, 936.0198
9.770000, 922.2619
9.790000, 917.0765
9.810000, 895.5920
9.830000, 869.1339
9.850000, 845.4756
9.870000, 815.4357
9.890000, 785.7828
9.910000, 758.0450
9.930000, 731.5001
9.950000, 721.2529
9.970000, 706.8376
9.990000, 689.2800
10.01000, 677.9322
10.03000, 650.4053
10.05000, 635.8763
10.07000, 608.6243
10.09000, 601.1146
10.11000, 586.3865
10.13000, 573.9924
10.15000, 565.6992
10.17000, 571.3853
10.19000, 587.2257
10.21000, 595.5480
10.23000, 607.9546
10.25000, 612.8985
10.27000, 612.5154
10.29000, 616.0693
10.31000, 604.7540
10.33000, 593.3626
10.35000, 578.6880
10.37000, 555.4786
10.39000, 536.3866
10.41000, 511.5858
10.43000, 491.5680
10.45000, 469.7851
10.47000, 450.3554
10.49000, 426.4138
10.51000, 407.2657
10.53000, 387.7947
10.55000, 368.7019
10.57000, 358.7056
10.59000, 356.9340
10.61000, 355.8969
10.63000, 351.0252
10.65000, 346.6909
10.67000, 341.5824
10.69000, 334.1839
10.71000, 327.2747
10.73000, 318.1087
10.75000, 317.4471
10.77000, 326.0586
10.79000, 326.9766
10.81000, 319.6607
10.83000, 317.4791
10.85000, 307.7916
10.87000, 300.8586
10.89000, 298.5601
10.91000, 297.1629
10.93000, 293.1005
10.95000, 291.8888
10.97000, 292.6255
10.99000, 288.0604
11.01000, 272.0562
11.03000, 266.9946
11.05000, 274.9429
11.07000, 288.2229
11.09000, 293.9991
11.11000, 298.8222
11.13000, 297.0219
11.15000, 292.7184
11.17000, 284.6523
11.19000, 278.1728
11.21000, 273.4797
11.23000, 270.1435
11.25000, 264.3742
11.27000, 261.2422
11.29000, 254.6374
11.31000, 239.6097
11.33000, 238.0899
11.35000, 245.5877
11.37000, 249.9134
11.39000, 258.2773
11.41000, 280.9799
11.43000, 306.3004
11.45000, 327.0430
11.47000, 357.8088
11.49000, 401.5266
11.51000, 454.3142
11.53000, 514.9958
11.55000, 579.8068
11.57000, 635.3777
11.59000, 685.2487
11.61000, 713.0525
11.63000, 734.7464
11.65000, 766.9532
11.67000, 787.2380
11.69000, 785.1989
11.71000, 744.8837
11.73000, 733.0157
11.75000, 716.4910
11.77000, 694.4150
11.79000, 665.6094
11.81000, 617.4571
11.83000, 558.4759
11.85000, 508.2805
11.87000, 465.6664
11.89000, 434.1420
11.91000, 393.9817
11.93000, 362.2372
11.95000, 323.1444
11.97000, 283.8195
11.99000, 255.2127
12.01000, 218.9026
12.03000, 197.4496
12.05000, 171.3840
12.07000, 155.7397
12.09000, 142.7426
12.11000, 138.4639
12.13000, 145.1463
12.15000, 131.0617
12.17000, 122.1484
12.19000, 123.4849
12.21000, 114.0623
12.23000, 100.9849
12.25000, 100.0319
12.27000, 88.77637
12.29000, 69.26408
12.31000, 53.41224
12.33000, 35.68832
12.35000, 19.54642
12.37000, 21.60057
12.39000, 17.61679
12.41000, 14.76138
12.43000, 13.77928
12.45000, 2.423036
12.47000, 10.58152
12.49000, 4.784296
12.51000, 3.864833
12.53000, 7.6026998E-02
12.55000, 6.372894
12.57000, 7.566396
12.59000, 0.2096270
12.61000, 3.783670
12.63000, 1.784565
12.65000, 3.779775
12.67000, 0.8286040
12.69000, 1.786864
12.71000, 0.5583850
12.73000, 0.6638390
12.75000, 1.690371
12.77000, 1.461505
12.79000, 6.313507
12.81000, 4.610255
12.83000, 11.77205
12.85000, 14.20977
12.87000, 7.690903
12.89000, 5.592978
12.91000, 7.425117
12.93000, 12.46342
12.95000, 18.36578
12.97000, 25.88002
12.99000, 27.29651
13.01000, 23.24486
13.03000, 22.49359
13.05000, 14.84116
13.07000, 3.418322
13.09000, 1.374910
13.11000, 3.474660
13.13000, 0.2426240
13.15000, 2.960494
13.17000, 4.618953
13.19000, 9.776005
13.21000, 16.88087
13.23000, 18.02526
13.25000, 16.79011
13.27000, 3.753469
13.29000, 0.3878110
13.31000, 6.950894
13.33000, 5.228676
13.35000, 3.265375
13.37000, 4.238916
13.39000, 0.8157510
13.41000, 2.520782
13.43000, 1.801460
13.45000, 3.972882
13.47000, 7.415847
13.49000, 9.742352
13.51000, 17.14758
13.53000, 20.67011
13.55000, 29.76602
13.57000, 30.36955
13.59000, 49.82241
13.61000, 60.59009
13.63000, 72.69861
13.65000, 71.66894
13.67000, 65.46782
13.69000, 66.14124
13.71000, 50.12425
13.73000, 29.99335
13.75000, 22.09389
13.77000, 10.03152
13.79000, 3.465197
13.81000, 3.468663
13.83000, 1.528947
13.85000, 1.431773
13.87000, 2.240229
13.89000, 2.987561
13.91000, 0.5184200
13.93000, 0.6001400
13.95000, 2.481843
13.97000, 2.451565
13.99000, 0.1603430
14.01000, 5.008842
14.03000, 2.112150
14.05000, 0.3626850
14.07000, 3.213529
14.09000, 4.034400
14.11000, 2.841139
14.13000, 11.29595
14.15000, 11.57674
14.17000, 0.7495170
14.19000, 1.622893
14.21000, 1.454550
14.23000, 2.712367
14.25000, 0.9403910
14.27000, 4.401258
14.29000, 2.067703
14.31000, 2.313915
14.33000, 8.412991
14.35000, 16.08865
14.37000, 25.48475
14.39000, 40.25787
14.41000, 52.43557
14.43000, 75.97694
14.45000, 99.58989
14.47000, 111.1718
14.49000, 124.8268
14.51000, 133.4652
14.53000, 147.4498
14.55000, 161.6954
14.57000, 161.1560
14.59000, 157.1038
14.61000, 147.3142
14.63000, 125.9551
14.65000, 100.8527
14.67000, 82.48166
14.69000, 69.55704
14.71000, 56.96971
14.73000, 37.98236
14.75000, 24.32505
14.77000, 15.02563
14.79000, 2.223182
14.81000, 2.749737
14.83000, 1.556594
14.85000, 6.531776
14.87000, 0.2791320
14.89000, 10.58379
14.91000, 9.589583
14.93000, 7.837829
14.95000, 2.939098
14.97000, 4.075234
14.99000, 3.908361
15.01000, 0.3027810
15.03000, 2.707718
15.05000, 0.3805340
15.07000, 3.801339
15.09000, 1.800271
15.11000, 1.319865
15.13000, 3.093923
15.15000, 1.496081
15.17000, 2.513446
15.19000, 4.034159
15.21000, 2.319952
15.23000, 4.438951
15.25000, 1.315345
15.27000, 2.248002
15.29000, 0.2887540
15.31000, 0.2893950
15.33000, 1.355891
15.35000, 2.652465
15.37000, 3.226848
15.39000, 4.085890
15.41000, 3.445993
15.43000, 2.555288
15.45000, 1.495101
15.47000, 3.611083
15.49000, 3.038851
15.51000, 8.772477
15.53000, 23.64472
15.55000, 39.74492
15.57000, 55.78297
15.59000, 83.41838
15.61000, 120.3825
15.63000, 164.2698
15.65000, 211.2736
15.67000, 276.6767
15.69000, 341.4330
15.71000, 398.3375
15.73000, 466.3489
15.75000, 532.6742
15.77000, 598.6334
15.79000, 663.6651
15.81000, 730.6665
15.83000, 784.1412
15.85000, 832.0270
15.87000, 877.6703
15.89000, 913.8609
15.91000, 946.6086
15.93000, 969.3334
15.95000, 983.8944
15.97000, 1005.525
15.99000, 995.6713
16.01000, 989.4337
16.03000, 987.6847
16.05000, 962.5410
16.07000, 922.8354
16.09000, 865.0764
16.11000, 802.5444
16.13000, 756.1194
16.15000, 723.2308
16.17000, 690.5398
16.19000, 666.8749
16.21000, 669.6869
16.23000, 691.9625
16.25000, 720.3799
16.27000, 779.3425
16.29000, 848.1317
16.31000, 909.7731
16.33000, 970.8715
16.35000, 1023.594
16.37000, 1063.756
16.39000, 1085.378
16.41000, 1100.387
16.43000, 1097.880
16.45000, 1079.550
16.47000, 1046.370
16.49000, 988.1715
16.51000, 920.2039
16.53000, 839.1403
16.55000, 746.5938
16.57000, 676.1831
16.59000, 611.5240
16.61000, 557.1090
16.63000, 512.3538
16.65000, 472.6534
16.67000, 430.1544
16.69000, 394.7062
16.71000, 361.7900
16.73000, 328.8987
16.75000, 306.7299
16.77000, 280.5065
16.79000, 248.7710
16.81000, 223.9677
16.83000, 192.4940
16.85000, 164.2034
16.87000, 136.2331
16.89000, 117.9726
16.91000, 101.8675
16.93000, 90.63834
16.95000, 85.24611
16.97000, 81.65228
16.99000, 85.06682
17.01000, 80.48833
17.03000, 83.80074
17.05000, 90.74790
17.07000, 108.0042
17.09000, 131.4050
17.11000, 143.6726
17.13000, 156.6449
17.15000, 170.9884
17.17000, 188.9706
17.19000, 208.6591
17.21000, 224.4077
17.23000, 245.0645
17.25000, 258.9344
17.27000, 272.0498
17.29000, 273.0939
17.31000, 262.7672
17.33000, 270.4836
17.35000, 275.3648
17.37000, 284.1128
17.39000, 299.7607
17.41000, 309.5412
17.43000, 318.1775
17.45000, 342.6210
17.47000, 374.6967
17.49000, 411.7463
17.51000, 469.3683
17.53000, 534.1755
17.55000, 604.3561
17.57000, 692.5078
17.59000, 783.6321
17.61000, 882.6637
17.63000, 985.0192
17.65000, 1095.608
17.67000, 1184.343
17.69000, 1252.100
17.71000, 1299.421
17.73000, 1315.149
17.75000, 1322.016
17.77000, 1298.452
17.79000, 1256.831
17.81000, 1185.848
17.83000, 1081.173
17.85000, 968.3027
17.87000, 847.4967
17.89000, 737.7859
17.91000, 627.1957
17.93000, 519.4833
17.95000, 435.1999
17.97000, 347.8297
17.99000, 277.6732
18.01000, 219.4416
18.03000, 181.1666
18.05000, 152.8039
18.07000, 140.5369
18.09000, 130.3781
18.11000, 121.0130
18.13000, 122.2714
18.15000, 124.6345
18.17000, 122.0198
18.19000, 129.5865
18.21000, 143.0665
18.23000, 149.5088
18.25000, 146.8983
18.27000, 144.1868
18.29000, 143.7979
18.31000, 139.3368
18.33000, 128.8823
18.35000, 132.7249
18.37000, 128.5046
18.39000, 127.5257
18.41000, 134.7160
18.43000, 134.9924
18.45000, 130.5059
18.47000, 121.1738
18.49000, 116.1438
18.51000, 118.0118
18.53000, 118.3550
18.55000, 113.7653
18.57000, 111.2550
18.59000, 107.8528
18.61000, 108.2885
18.63000, 111.2485
18.65000, 114.1833
18.67000, 113.4607
18.69000, 112.5308
18.71000, 109.5674
18.73000, 107.3210
18.75000, 99.68684
18.77000, 90.05167
18.79000, 82.97817
18.81000, 69.52579
18.83000, 65.83689
18.85000, 66.77039
18.87000, 67.71647
18.89000, 60.38884
18.91000, 55.33424
18.93000, 48.21833
18.95000, 48.46959
18.97000, 40.91773
18.99000, 33.62989
19.01000, 34.44275
19.03000, 38.72841
19.05000, 34.24586
19.07000, 37.03156
19.09000, 32.27925
19.11000, 29.19642
19.13000, 26.11648
19.15000, 24.89845
19.17000, 23.21644
19.19000, 20.08162
19.21000, 17.03023
19.23000, 22.50369
19.25000, 31.91267
19.27000, 36.83601
19.29000, 29.60804
19.31000, 22.34804
19.33000, 13.94297
19.35000, 5.595767
19.37000, 4.006947
19.39000, 9.161721
19.41000, 3.714848
19.43000, 21.52828
19.45000, 28.57091
19.47000, 19.22459
19.49000, 11.62099
19.51000, 2.631060
19.53000, 0.2966070
19.55000, 8.212807
19.57000, 6.449519
19.59000, 3.903208
19.61000, 4.774023
19.63000, 6.350488
19.65000, 6.082220
19.67000, 1.717103
19.69000, 6.321287
19.71000, 5.557625
19.73000, 5.013380
19.75000, 0.7741630
19.77000, 0.9025220
19.79000, 2.679325
19.81000, 0.5186570
19.83000, 4.878682
19.85000, 1.186286
19.87000, 1.010140
19.89000, 4.733186
19.91000, 5.948956
19.93000, 2.097504
19.95000, 1.618204
19.97000, 9.481486
19.99000, 29.00648
20.01000, 42.69812
20.03000, 48.15320
20.05000, 56.45461
20.07000, 58.87592
20.09000, 65.27943
20.11000, 68.57589
20.13000, 77.79131
20.15000, 85.60941
20.17000, 96.84138
20.19000, 109.2045
20.21000, 124.7156
20.23000, 138.9539
20.25000, 160.8327
20.27000, 180.4761
20.29000, 202.5900
20.31000, 222.0397
20.33000, 233.8451
20.35000, 238.8525
20.37000, 247.8256
20.39000, 246.1785
20.41000, 237.7824
20.43000, 231.5948
20.45000, 223.7484
20.47000, 222.4326
20.49000, 225.7832
20.51000, 222.1284
20.53000, 200.2706
20.55000, 185.7538
20.57000, 163.6377
20.59000, 151.2025
20.61000, 144.1490
20.63000, 143.6303
20.65000, 146.9007
20.67000, 156.0317
20.69000, 169.0742
20.71000, 189.2622
20.73000, 211.1496
20.75000, 239.9245
20.77000, 273.2545
20.79000, 314.0679
20.81000, 357.3176
20.83000, 404.1510
20.85000, 456.6489
20.87000, 499.2889
20.89000, 556.6024
20.91000, 604.4296
20.93000, 646.2319
20.95000, 667.4395
20.97000, 671.8019
20.99000, 667.3397
21.01000, 659.0031
21.03000, 643.1514
21.05000, 617.8439
21.07000, 573.7557
21.09000, 527.9399
21.11000, 493.9925
21.13000, 451.0956
21.15000, 415.6496
21.17000, 369.9742
21.19000, 325.0697
21.21000, 270.5249
21.23000, 227.0097
21.25000, 195.2962
21.27000, 158.4078
21.29000, 134.7250
21.31000, 113.1292
21.33000, 95.30752
21.35000, 84.64324
21.37000, 72.92675
21.39000, 61.92038
21.41000, 53.58458
21.43000, 48.85369
21.45000, 47.50521
21.47000, 44.01810
21.49000, 38.23827
21.51000, 31.56564
21.53000, 25.55739
21.55000, 16.52686
21.57000, 2.990981
21.59000, 0.3149510
21.61000, 3.1619001E-02
21.63000, 1.0606000E-02
21.65000, 8.861417
21.67000, 20.35396
21.69000, 21.75299
21.71000, 22.84593
21.73000, 22.09286
21.75000, 18.55965
21.77000, 7.838031
21.79000, 2.134976
21.81000, 1.125888
21.83000, 2.621123
21.85000, 2.733306
21.87000, 8.314042
21.89000, 0.9699810
21.91000, 4.822535
21.93000, 1.173482
21.95000, 3.164059
21.97000, 7.518608
21.99000, 3.641951
22.01000, 1.141690
22.03000, 0.3766170
22.05000, 0.7548760
22.07000, 0.1615220
22.09000, 0.8701650
22.11000, 1.422618
22.13000, 0.3579160
22.15000, 1.239793
22.17000, 0.6825980
22.19000, 3.896159
22.21000, 3.972414
22.23000, 4.499080
22.25000, 9.283557
22.27000, 4.915917
22.29000, 8.173008
22.31000, 9.265537
22.33000, 7.274448
22.35000, 0.4940650
22.37000, 0.5684470
22.39000, 1.872799
22.41000, 0.1405400
22.43000, 1.344805
22.45000, 0.2095510
22.47000, 1.446508
22.49000, 0.6607660
22.51000, 2.548927
22.53000, 10.34948
22.55000, 5.852604
22.57000, 0.3836370
22.59000, 1.325489
22.61000, 1.955678
22.63000, 1.799836
22.65000, 1.6262000E-02
22.67000, 0.5468710
22.69000, 9.751899
22.71000, 9.332269
22.73000, 0.8133660
22.75000, 0.7387670
22.77000, 1.248907
22.79000, 0.9393760
22.81000, 6.8103001E-02
22.83000, 4.521449
22.85000, 8.225745
22.87000, 8.455176
22.89000, 10.38665
22.91000, 11.99232
22.93000, 15.76117
22.95000, 16.19318
22.97000, 22.16044
22.99000, 21.01394
23.01000, 19.33875
23.03000, 14.92185
23.05000, 15.42829
23.07000, 20.24114
23.09000, 22.52243
23.11000, 24.28915
23.13000, 30.33932
23.15000, 22.04307
23.17000, 17.16727
23.19000, 13.04612
23.21000, 13.00157
23.23000, 4.944657
23.25000, 8.553405
23.27000, 9.459913
23.29000, 1.537131
23.31000, 3.252199
23.33000, 1.821114
23.35000, 5.552926
23.37000, 10.22373
23.39000, 11.08554
23.41000, 6.536506
23.43000, 0.4644570
23.45000, 1.624210
23.47000, 0.5129130
23.49000, 0.6831090
23.51000, 1.975051
23.53000, 0.1067680
23.55000, 0.5760180
23.57000, 0.4299480
23.59000, 0.9796200
23.61000, 0.8980000
23.63000, 2.8385000E-02
23.65000, 0.9025120
23.67000, 1.652354
23.69000, 0.7318980
23.71000, 5.868170
23.73000, 1.711315
23.75000, 0.3369430
23.77000, 0.4998560
23.79000, 0.3521530
23.81000, 0.1633850
23.83000, 0.8809400
23.85000, 0.6774120
23.87000, 0.9831850
23.89000, 0.9778920
23.91000, 9.658165
23.93000, 14.32600
23.95000, 14.90231
23.97000, 19.76333
23.99000, 23.18470
24.01000, 23.43462
24.03000, 28.37685
24.05000, 32.17477
24.07000, 28.31822
24.09000, 29.84034
24.11000, 34.16244
24.13000, 45.49858
24.15000, 57.59115
24.17000, 74.14259
24.19000, 87.56023
24.21000, 105.8722
24.23000, 120.1475
24.25000, 134.2407
24.27000, 152.6818
24.29000, 170.1487
24.31000, 183.8071
24.33000, 204.0414
24.35000, 222.2628
24.37000, 240.9322
24.39000, 264.3030
24.41000, 279.3940
24.43000, 293.7759
24.45000, 312.6319
24.47000, 313.8101
24.49000, 323.7389
24.51000, 325.5276
24.53000, 317.5941
24.55000, 315.5855
24.57000, 318.1121
24.59000, 314.3073
24.61000, 317.2667
24.63000, 321.5680
24.65000, 318.2263
24.67000, 307.6367
24.69000, 315.0151
24.71000, 314.7577
24.73000, 312.4232
24.75000, 320.9134
24.77000, 311.5374
24.79000, 289.5063
24.81000, 286.4894
24.83000, 294.7658
24.85000, 305.9257
24.87000, 311.2653
24.89000, 326.1459
24.91000, 338.5274
24.93000, 353.1245
24.95000, 365.3704
24.97000, 390.8409
24.99000, 415.3003
25.01000, 439.7500
25.03000, 477.0430
25.05000, 500.3340
25.07000, 535.6247
25.09000, 548.8773
25.11000, 584.5270
25.13000, 613.2665
25.15000, 627.2632
25.17000, 626.3120
25.19000, 622.1448
25.21000, 612.4315
25.23000, 620.8217
25.25000, 598.7687
25.27000, 580.2784
25.29000, 553.8391
25.31000, 513.4222
25.33000, 487.2638
25.35000, 429.1562
25.37000, 393.7368
25.39000, 350.5688
25.41000, 320.4202
25.43000, 279.7209
25.45000, 255.2120
25.47000, 239.3116
25.49000, 205.6595
25.51000, 180.8702
25.53000, 166.4056
25.55000, 158.9125
25.57000, 142.4091
25.59000, 126.8975
25.61000, 117.6097
25.63000, 115.2501
25.65000, 107.7804
25.67000, 92.12943
25.69000, 75.66559
25.71000, 61.90733
25.73000, 54.67665
25.75000, 53.38367
25.77000, 49.21044
25.79000, 48.73927
25.81000, 57.53533
25.83000, 62.56918
25.85000, 62.90447
25.87000, 58.30375
25.89000, 55.70753
25.91000, 46.26680
25.93000, 32.11058
25.95000, 18.40721
25.97000, 12.36798
25.99000, 9.276549
26.01000, 4.233626
26.03000, 6.086506
26.05000, 3.176899
26.07000, 4.787594
26.09000, 6.575891
26.11000, 9.358644
26.13000, 12.19090
26.15000, 15.88448
26.17000, 18.49868
26.19000, 18.50812
26.21000, 8.878487
26.23000, 0.4696810
26.25000, 3.860734
26.27000, 3.671585
26.29000, 4.836346
26.31000, 3.878486
26.33000, 4.017859
26.35000, 2.632215
26.37000, 2.786940
26.39000, 3.146070
26.41000, 0.8344110
26.43000, 4.077394
26.45000, 2.288997
26.47000, 2.974996
26.49000, 4.369462
26.51000, 0.1459590
26.53000, 13.79804
26.55000, 9.449969
26.57000, 13.79419
26.59000, 31.51968
26.61000, 48.83932
26.63000, 70.01242
26.65000, 89.14062
26.67000, 105.5643
26.69000, 109.5412
26.71000, 112.4393
26.73000, 116.3613
26.75000, 123.4113
26.77000, 130.0600
26.79000, 115.7969
26.81000, 104.2433
26.83000, 107.8589
26.85000, 101.6600
26.87000, 95.29514
26.89000, 91.73900
26.91000, 94.37949
26.93000, 96.28891
26.95000, 96.25808
26.97000, 81.56278
26.99000, 72.82849
27.01000, 61.04740
27.03000, 45.71037
27.05000, 23.18619
27.07000, 15.83189
27.09000, 9.362492
27.11000, 3.063894
27.13000, 17.12114
27.15000, 31.26576
27.17000, 46.65751
27.19000, 64.61706
27.21000, 79.89221
27.23000, 82.42352
27.25000, 97.81689
27.27000, 117.0677
27.29000, 123.7205
27.31000, 173.5473
27.33000, 212.0456
27.35000, 267.9784
27.37000, 293.4562
27.39000, 324.1826
27.41000, 338.6944
27.43000, 367.0666
27.45000, 398.3974
27.47000, 407.9264
27.49000, 416.7159
27.51000, 454.7614
27.53000, 483.7818
27.55000, 526.9026
27.57000, 546.5308
27.59000, 571.8163
27.61000, 605.5376
27.63000, 616.5236
27.65000, 642.6434
27.67000, 680.3585
27.69000, 719.5280
27.71000, 761.6619
27.73000, 788.2203
27.75000, 793.1835
27.77000, 772.2206
27.79000, 762.4029
27.81000, 742.6291
27.83000, 716.2703
27.85000, 676.3153
27.87000, 626.8854
27.89000, 562.1896
27.91000, 503.7607
27.93000, 451.7224
27.95000, 395.6700
27.97000, 333.3881
27.99000, 299.4565
28.01000, 253.7934
28.03000, 220.0147
28.05000, 190.5659
28.07000, 153.4934
28.09000, 122.7340
28.11000, 107.9464
28.13000, 95.46059
28.15000, 79.04848
28.17000, 73.91576
28.19000, 78.32043
28.21000, 78.87727
28.23000, 79.89142
28.25000, 86.20534
28.27000, 88.61765
28.29000, 93.69646
28.31000, 100.0901
28.33000, 108.8439
28.35000, 119.5083
28.37000, 135.8369
28.39000, 148.7479
28.41000, 160.2223
28.43000, 164.6131
28.45000, 142.3672
28.47000, 125.2379
28.49000, 108.9488
28.51000, 104.3241
28.53000, 111.6529
28.55000, 109.3607
28.57000, 93.18710
28.59000, 84.31697
28.61000, 81.45292
28.63000, 62.03641
28.65000, 44.08048
28.67000, 35.30177
28.69000, 20.65285
28.71000, 8.525717
28.73000, 5.150412
28.75000, 3.349371
28.77000, 0.7040970
28.79000, 2.458301
28.81000, 0.2708680
28.83000, 0.4226890
28.85000, 10.24690
28.87000, 16.78812
28.89000, 16.58089
28.91000, 11.22750
28.93000, 20.73493
28.95000, 29.46244
28.97000, 40.13600
28.99000, 60.90258
29.01000, 86.41515
29.03000, 100.1975
29.05000, 108.4368
29.07000, 110.9030
29.09000, 123.0271
29.11000, 130.0228
29.13000, 133.7243
29.15000, 139.9159
29.17000, 137.2392
29.19000, 136.8357
29.21000, 134.9015
29.23000, 127.1729
29.25000, 119.8028
29.27000, 109.7719
29.29000, 100.0637
29.31000, 86.74184
29.33000, 82.87714
29.35000, 66.46959
29.37000, 67.15720
29.39000, 71.12198
29.41000, 53.77079
29.43000, 52.69273
29.45000, 45.79471
29.47000, 32.43369
29.49000, 18.03758
29.51000, 3.121515
29.53000, 2.425808
29.55000, 7.492674
29.57000, 12.11395
29.59000, 4.912969
29.61000, 2.207201
29.63000, 2.297891
29.65000, 1.602169
29.67000, 2.349379
29.69000, 0.7812780
29.71000, 0.7035050
29.73000, 1.951688
29.75000, 1.528267
29.77000, 2.665219
29.79000, 4.128832
29.81000, 4.095213
29.83000, 4.264259
29.85000, 15.74551
29.87000, 23.87498
29.89000, 20.81263
29.91000, 27.77435
29.93000, 27.86513
29.95000, 23.57198
29.97000, 32.47883
29.99000, 39.65873
30.01000, 38.79554
30.03000, 35.70531
30.05000, 41.00399
30.07000, 40.64666
30.09000, 48.94427
30.11000, 51.67978
30.13000, 60.47223
30.15000, 70.97945
30.17000, 78.31970
30.19000, 65.57275
30.21000, 57.81445
30.23000, 54.37033
30.25000, 65.27865
30.27000, 63.50939
30.29000, 52.81995
30.31000, 33.01234
30.33000, 23.72850
30.35000, 11.64842
30.37000, 1.689196
30.39000, 0.9482080
30.41000, 1.932495
30.43000, 1.095068
30.45000, 0.6988510
30.47000, 0.5548650
30.49000, 1.325228
30.51000, 0.3259430
30.53000, 2.977223
30.55000, 1.287709
30.57000, 0.5757630
30.59000, 2.392701
30.61000, 6.398351
30.63000, 3.733676
30.65000, 0.4137140
30.67000, 1.131133
30.69000, 0.7261510
30.71000, 0.3458290
30.73000, 1.514272
30.75000, 1.956119
30.77000, 1.528973
30.79000, 0.4540340
30.81000, 0.9440840
30.83000, 0.9869980
30.85000, 1.389033
30.87000, 0.7960070
30.89000, 1.981159
30.91000, 6.978997
30.93000, 4.583506
30.95000, 1.950111
30.97000, 1.108478
30.99000, 0.8021140
31.01000, 1.169165
31.03000, 0.2722140
31.05000, 0.7081670
31.07000, 1.820805
31.09000, 1.707588
31.11000, 0.1929420
31.13000, 0.8757240
31.15000, 0.3816520
31.17000, 2.922084
31.19000, 7.3656999E-02
31.21000, 0.5010740
31.23000, 9.125527
31.25000, 23.58716
31.27000, 30.99747
31.29000, 39.58826
31.31000, 38.71252
31.33000, 43.22410
31.35000, 52.49303
31.37000, 55.02735
31.39000, 61.11598
31.41000, 68.55384
31.43000, 79.76508
31.45000, 105.9717
31.47000, 123.8067
31.49000, 129.7440
31.51000, 132.7577
31.53000, 173.5636
31.55000, 198.9048
31.57000, 222.8472
31.59000, 254.7876
31.61000, 276.7685
31.63000, 315.8424
31.65000, 344.6524
31.67000, 354.4096
31.69000, 363.4988
31.71000, 387.6169
31.73000, 395.8129
31.75000, 408.1258
31.77000, 413.3065
31.79000, 431.0110
31.81000, 443.6063
31.83000, 444.5326
31.85000, 431.1378
31.87000, 418.8178
31.89000, 397.4331
31.91000, 379.8071
31.93000, 351.1161
31.95000, 334.5176
31.97000, 312.9310
31.99000, 291.5424
32.01000, 276.1496
32.03000, 263.1711
32.05000, 254.8847
32.07000, 242.9064
32.09000, 244.5075
32.11000, 233.4114
32.13000, 224.8288
32.15000, 217.3414
32.17000, 228.1428
32.19000, 227.5238
32.21000, 222.6009
32.23000, 216.5793
32.25000, 217.6711
32.27000, 215.9026
32.29000, 209.5888
32.31000, 214.3688
32.33000, 212.0816
32.35000, 206.3857
32.37000, 196.3390
32.39000, 212.4054
32.41000, 208.4414
32.43000, 241.5331
32.45000, 243.2328
32.47000, 239.7864
32.49000, 237.0343
32.51000, 245.4418
32.53000, 256.9292
32.55000, 268.6057
32.57000, 235.5434
32.59000, 214.5194
32.61000, 196.1368
32.63000, 187.2326
32.65000, 192.6286
32.67000, 188.9494
32.69000, 184.8217
32.71000, 179.1183
32.73000, 143.3467
32.75000, 126.8702
32.77000, 138.6871
32.79000, 125.1851
32.81000, 122.9759
32.83000, 120.1194
32.85000, 132.1666
32.87000, 133.3536
32.89000, 133.3022
32.91000, 133.4611
32.93000, 127.6871
32.95000, 122.5958
32.97000, 133.2679
32.99000, 139.8475
33.01000, 148.6364
33.03000, 141.4635
33.05000, 147.1574
33.07000, 149.6047
33.09000, 147.6721
33.11000, 146.9983
33.13000, 149.8900
33.15000, 180.2442
33.17000, 192.7272
33.19000, 180.3591
33.21000, 168.3753
33.23000, 159.6810
33.25000, 141.4912
33.27000, 133.7434
33.29000, 123.1408
33.31000, 132.6890
33.33000, 119.6226
33.35000, 144.5795
33.37000, 112.4010
33.39000, 105.8696
33.41000, 114.5328
33.43000, 134.8210
33.45000, 155.9627
33.47000, 165.8884
33.49000, 166.7785
33.51000, 164.6124
33.53000, 163.7761
33.55000, 170.2643
33.57000, 164.2831
33.59000, 174.6996
33.61000, 178.8093
33.63000, 177.2808
33.65000, 163.4607
33.67000, 148.8359
33.69000, 138.4388
33.71000, 146.8819
33.73000, 153.8074
33.75000, 155.3079
33.77000, 147.5997
33.79000, 150.0092
33.81000, 137.3055
33.83000, 141.3296
33.85000, 135.0898
33.87000, 146.5379
33.89000, 130.0798
33.91000, 126.3275
33.93000, 131.4730
33.95000, 139.5020
33.97000, 129.9573
33.99000, 117.3535
34.01000, 122.1735
34.03000, 109.6146
34.05000, 90.34165
34.07000, 89.30413
34.09000, 82.44007
34.11000, 61.18748
34.13000, 42.94691
34.15000, 36.89654
34.17000, 37.08672
34.19000, 39.54029
34.21000, 34.23728
34.23000, 36.94804
34.25000, 33.07821
34.27000, 30.92348
34.29000, 34.75677
34.31000, 31.76712
34.33000, 32.31118
34.35000, 31.89680
34.37000, 25.42129
34.39000, 19.25109
34.41000, 26.31730
34.43000, 27.70337
34.45000, 23.74678
34.47000, 13.23429
34.49000, 1.391169
34.51000, 0.6684580
34.53000, 1.635034
34.55000, 1.903561
34.57000, 0.3284360
34.59000, 1.592613
34.61000, 2.853949
34.63000, 10.78043
34.65000, 15.56417
34.67000, 16.07641
34.69000, 13.69393
34.71000, 19.04449
34.73000, 13.26520
34.75000, 6.770539
34.77000, 3.442189
34.79000, 1.227261
34.81000, 3.903517
34.83000, 6.552396
34.85000, 8.552578
34.87000, 11.74184
34.89000, 17.86369
34.91000, 23.96540
34.93000, 37.33275
34.95000, 28.89298
34.97000, 0.2180830
34.99000, 1.201702
35.01000, 0.4598710
35.03000, 0.4797040
35.05000, 3.0261001E-02
35.07000, 8.932540
35.09000, 4.140663
35.11000, 4.928259
35.13000, 14.79570
35.15000, 12.15697
35.17000, 6.308706
35.19000, 0.5288690
35.21000, 7.186666
35.23000, 12.25332
35.25000, 13.56294
35.27000, 13.96608
35.29000, 15.49691
35.31000, 11.50782
35.33000, 13.08841
35.35000, 10.73115
35.37000, 9.799414
35.39000, 11.94688
35.41000, 13.39275
35.43000, 11.99006
35.45000, 8.7393001E-02
35.47000, 6.575463
35.49000, 6.240272
35.51000, 0.0000000E+00
##END=



