##NAMES=Calcite
##RRUFFID=R150020
##IDEAL CHEMISTRY=CaCO_3_
##LOCALITY=Creel, Chihuahua, Mexico
##OWNER=RRUFF
##SOURCE=Canan D'Avela
##DESCRIPTION=Transparent colorless cleavage fragments of Iceland spar obtained through Wards
##DIFFRACTION SAMPLE DESCRIPTION=Powder
##STATUS=The identification of this mineral has been confirmed by X-ray diffraction and chemical analysis
##URL=rruff.info/R150020
##MEASURED CHEMISTRY=Ca_0.993_CO_3_; trace amount of Sr
##CELL PARAMETERS=a: 4.98793(9) b: 4.98793(9) c: 17.0545(4) alpha: 90 beta: 90 gamma: 120 volume: 367.46(1) crystal system: hexagonal
5, 152
5.01, 131
5.02, 125
5.03, 135
5.04, 139
5.05, 120
5.06, 121
5.07, 141
5.08, 140
5.09, 139
5.1, 141
5.11, 136
5.12, 120
5.13, 132
5.14, 119
5.15, 125
5.16, 144
5.17, 132
5.18, 144
5.19, 128
5.2, 127
5.21, 142
5.22, 118
5.23, 144
5.24, 131
5.25, 133
5.26, 135
5.27, 133
5.28, 135
5.29, 102
5.3, 122
5.31, 114
5.32, 131
5.33, 133
5.34, 123
5.35, 131
5.36, 141
5.37, 109
5.38, 133
5.39, 119
5.4, 98
5.41, 119
5.42, 118
5.43, 118
5.44, 128
5.45, 116
5.46, 117
5.47, 116
5.48, 118
5.49, 140
5.5, 110
5.51, 125
5.52, 126
5.53, 135
5.54, 127
5.55, 124
5.56, 117
5.57, 104
5.58, 115
5.59, 122
5.6, 118
5.61, 127
5.62, 124
5.63, 105
5.64, 137
5.65, 120
5.66, 125
5.67, 136
5.68, 149
5.69, 137
5.7, 132
5.71, 139
5.72, 144
5.73, 139
5.74, 133
5.75, 140
5.76, 141
5.77, 154
5.78, 144
5.79, 143
5.8, 147
5.81, 149
5.82, 149
5.83, 148
5.84, 167
5.85, 148
5.86, 160
5.87, 150
5.88, 156
5.89, 147
5.9, 137
5.91, 164
5.92, 135
5.93, 162
5.94, 151
5.95, 158
5.96, 177
5.97, 166
5.98, 136
5.99, 147
6, 183
6.01, 162
6.02, 164
6.03, 180
6.04, 181
6.05, 157
6.06, 201
6.07, 162
6.08, 160
6.09, 135
6.1, 163
6.11, 167
6.12, 167
6.13, 196
6.14, 186
6.15, 176
6.16, 166
6.17, 161
6.18, 164
6.19, 174
6.2, 182
6.21, 175
6.22, 186
6.23, 170
6.24, 160
6.25, 167
6.26, 186
6.27, 176
6.28, 207
6.29, 177
6.3, 174
6.31, 175
6.32, 172
6.33, 187
6.34, 185
6.35, 165
6.36, 180
6.37, 172
6.38, 200
6.39, 176
6.4, 174
6.41, 176
6.42, 188
6.43, 173
6.44, 182
6.45, 173
6.46, 171
6.47, 187
6.48, 174
6.49, 157
6.5, 196
6.51, 154
6.52, 182
6.53, 175
6.54, 181
6.55, 183
6.56, 157
6.57, 179
6.58, 157
6.59, 186
6.6, 177
6.61, 154
6.62, 176
6.63, 177
6.64, 171
6.65, 199
6.66, 195
6.67, 184
6.68, 167
6.69, 172
6.7, 163
6.71, 163
6.72, 154
6.73, 159
6.74, 184
6.75, 169
6.76, 183
6.77, 137
6.78, 140
6.79, 178
6.8, 160
6.81, 177
6.82, 170
6.83, 158
6.84, 162
6.85, 177
6.86, 154
6.87, 148
6.88, 157
6.89, 160
6.9, 153
6.91, 142
6.92, 171
6.93, 134
6.94, 160
6.95, 153
6.96, 126
6.97, 122
6.98, 139
6.99, 146
7, 112
7.01, 108
7.02, 114
7.03, 118
7.04, 124
7.05, 97
7.06, 105
7.07, 104
7.08, 97
7.09, 119
7.1, 96
7.11, 112
7.12, 101
7.13, 106
7.14, 89
7.15, 82
7.16, 100
7.17, 106
7.18, 119
7.19, 102
7.2, 97
7.21, 100
7.22, 100
7.23, 88
7.24, 91
7.25, 88
7.26, 120
7.27, 107
7.28, 87
7.29, 107
7.3, 97
7.31, 103
7.32, 106
7.33, 104
7.34, 91
7.35, 88
7.36, 90
7.37, 82
7.38, 110
7.39, 109
7.4, 89
7.41, 111
7.42, 96
7.43, 101
7.44, 102
7.45, 104
7.46, 115
7.47, 90
7.48, 88
7.49, 107
7.5, 93
7.51, 91
7.52, 106
7.53, 115
7.54, 89
7.55, 106
7.56, 91
7.57, 87
7.58, 80
7.59, 98
7.6, 84
7.61, 92
7.62, 94
7.63, 103
7.64, 97
7.65, 103
7.66, 87
7.67, 104
7.68, 94
7.69, 91
7.7, 101
7.71, 91
7.72, 99
7.73, 99
7.74, 90
7.75, 100
7.76, 110
7.77, 89
7.78, 104
7.79, 93
7.8, 94
7.81, 107
7.82, 104
7.83, 88
7.84, 81
7.85, 96
7.86, 84
7.87, 93
7.88, 98
7.89, 86
7.9, 84
7.91, 86
7.92, 73
7.93, 82
7.94, 71
7.95, 101
7.96, 89
7.97, 98
7.98, 88
7.99, 93
8, 103
8.01, 86
8.02, 102
8.03, 87
8.04, 84
8.05, 98
8.06, 99
8.07, 105
8.08, 101
8.09, 93
8.1, 77
8.11, 115
8.12, 94
8.13, 107
8.14, 91
8.15, 90
8.16, 97
8.17, 103
8.18, 73
8.19, 82
8.2, 80
8.21, 100
8.22, 76
8.23, 100
8.24, 93
8.25, 98
8.26, 86
8.27, 105
8.28, 92
8.29, 86
8.3, 78
8.31, 98
8.32, 90
8.33, 101
8.34, 85
8.35, 101
8.36, 89
8.37, 88
8.38, 76
8.39, 96
8.4, 93
8.41, 91
8.42, 81
8.43, 105
8.44, 97
8.45, 76
8.46, 94
8.47, 93
8.48, 76
8.49, 74
8.5, 82
8.51, 74
8.52, 91
8.53, 90
8.54, 85
8.55, 87
8.56, 85
8.57, 88
8.58, 71
8.59, 83
8.6, 83
8.61, 90
8.62, 96
8.63, 94
8.64, 88
8.65, 80
8.66, 79
8.67, 87
8.68, 88
8.69, 74
8.7, 72
8.71, 90
8.72, 84
8.73, 101
8.74, 72
8.75, 85
8.76, 87
8.77, 97
8.78, 83
8.79, 83
8.8, 100
8.81, 82
8.82, 92
8.83, 82
8.84, 88
8.85, 99
8.86, 73
8.87, 77
8.88, 71
8.89, 70
8.9, 70
8.91, 76
8.92, 97
8.93, 82
8.94, 89
8.95, 81
8.96, 79
8.97, 75
8.98, 85
8.99, 73
9, 86
9.01, 79
9.02, 87
9.03, 67
9.04, 93
9.05, 89
9.06, 86
9.07, 67
9.08, 84
9.09, 73
9.1, 89
9.11, 79
9.12, 81
9.13, 70
9.14, 86
9.15, 71
9.16, 87
9.17, 87
9.18, 85
9.19, 74
9.2, 76
9.21, 88
9.22, 89
9.23, 78
9.24, 81
9.25, 90
9.26, 97
9.27, 103
9.28, 85
9.29, 79
9.3, 72
9.31, 76
9.32, 73
9.33, 77
9.34, 72
9.35, 75
9.36, 80
9.37, 83
9.38, 78
9.39, 76
9.4, 72
9.41, 83
9.42, 92
9.43, 83
9.44, 78
9.45, 78
9.46, 84
9.47, 82
9.48, 78
9.49, 79
9.5, 82
9.51, 82
9.52, 77
9.53, 85
9.54, 74
9.55, 89
9.56, 82
9.57, 86
9.58, 94
9.59, 74
9.6, 78
9.61, 66
9.62, 77
9.63, 83
9.64, 99
9.65, 82
9.66, 68
9.67, 80
9.68, 71
9.69, 85
9.7, 67
9.71, 73
9.72, 80
9.73, 82
9.74, 90
9.75, 81
9.76, 73
9.77, 70
9.78, 86
9.79, 67
9.8, 78
9.81, 81
9.82, 79
9.83, 75
9.84, 87
9.85, 89
9.86, 78
9.87, 82
9.88, 70
9.89, 67
9.9, 76
9.91, 78
9.92, 107
9.93, 84
9.94, 79
9.95, 73
9.96, 77
9.97, 77
9.98, 75
9.99, 79
10, 75
10.01, 65
10.02, 89
10.03, 82
10.04, 67
10.05, 83
10.06, 83
10.07, 73
10.08, 72
10.09, 70
10.1, 75
10.11, 70
10.12, 91
10.13, 84
10.14, 88
10.15, 67
10.16, 70
10.17, 82
10.18, 74
10.19, 65
10.2, 81
10.21, 68
10.22, 77
10.23, 79
10.24, 57
10.25, 76
10.26, 68
10.27, 72
10.28, 82
10.29, 79
10.3, 78
10.31, 70
10.32, 77
10.33, 65
10.34, 78
10.35, 70
10.36, 70
10.37, 70
10.38, 76
10.39, 81
10.4, 73
10.41, 67
10.42, 66
10.43, 78
10.44, 65
10.45, 82
10.46, 66
10.47, 60
10.48, 83
10.49, 65
10.5, 62
10.51, 72
10.52, 64
10.53, 63
10.54, 72
10.55, 64
10.56, 73
10.57, 81
10.58, 68
10.59, 65
10.6, 59
10.61, 86
10.62, 79
10.63, 54
10.64, 70
10.65, 77
10.66, 72
10.67, 82
10.68, 87
10.69, 81
10.7, 59
10.71, 66
10.72, 58
10.73, 82
10.74, 70
10.75, 73
10.76, 53
10.77, 66
10.78, 64
10.79, 49
10.8, 82
10.81, 83
10.82, 68
10.83, 68
10.84, 71
10.85, 61
10.86, 60
10.87, 71
10.88, 68
10.89, 73
10.9, 80
10.91, 60
10.92, 64
10.93, 60
10.94, 61
10.95, 64
10.96, 68
10.97, 52
10.98, 62
10.99, 65
11, 63
11.01, 60
11.02, 64
11.03, 80
11.04, 48
11.05, 77
11.06, 71
11.07, 63
11.08, 49
11.09, 60
11.1, 60
11.11, 74
11.12, 67
11.13, 57
11.14, 51
11.15, 59
11.16, 54
11.17, 51
11.18, 55
11.19, 54
11.2, 41
11.21, 57
11.22, 42
11.23, 52
11.24, 40
11.25, 48
11.26, 68
11.27, 65
11.28, 56
11.29, 46
11.3, 52
11.31, 56
11.32, 52
11.33, 42
11.34, 54
11.35, 46
11.36, 43
11.37, 43
11.38, 59
11.39, 46
11.4, 60
11.41, 33
11.42, 43
11.43, 54
11.44, 43
11.45, 38
11.46, 45
11.47, 49
11.48, 44
11.49, 35
11.5, 36
11.51, 38
11.52, 34
11.53, 43
11.54, 33
11.55, 37
11.56, 47
11.57, 46
11.58, 60
11.59, 41
11.6, 49
11.61, 43
11.62, 42
11.63, 46
11.64, 40
11.65, 39
11.66, 45
11.67, 40
11.68, 49
11.69, 49
11.7, 41
11.71, 46
11.72, 44
11.73, 45
11.74, 46
11.75, 41
11.76, 40
11.77, 43
11.78, 37
11.79, 52
11.8, 41
11.81, 57
11.82, 35
11.83, 40
11.84, 37
11.85, 39
11.86, 36
11.87, 31
11.88, 30
11.89, 51
11.9, 38
11.91, 32
11.92, 49
11.93, 43
11.94, 48
11.95, 32
11.96, 36
11.97, 38
11.98, 37
11.99, 40
12, 48
12.01, 48
12.02, 48
12.03, 49
12.04, 50
12.05, 51
12.06, 37
12.07, 43
12.08, 47
12.09, 60
12.1, 55
12.11, 47
12.12, 45
12.13, 34
12.14, 60
12.15, 47
12.16, 52
12.17, 58
12.18, 40
12.19, 31
12.2, 46
12.21, 56
12.22, 39
12.23, 40
12.24, 40
12.25, 47
12.26, 45
12.27, 40
12.28, 59
12.29, 38
12.3, 47
12.31, 49
12.32, 45
12.33, 47
12.34, 26
12.35, 45
12.36, 44
12.37, 56
12.38, 35
12.39, 49
12.4, 46
12.41, 41
12.42, 58
12.43, 43
12.44, 49
12.45, 44
12.46, 47
12.47, 47
12.48, 44
12.49, 48
12.5, 43
12.51, 46
12.52, 42
12.53, 39
12.54, 56
12.55, 48
12.56, 38
12.57, 58
12.58, 30
12.59, 57
12.6, 42
12.61, 52
12.62, 55
12.63, 47
12.64, 52
12.65, 33
12.66, 43
12.67, 48
12.68, 46
12.69, 46
12.7, 45
12.71, 41
12.72, 41
12.73, 51
12.74, 49
12.75, 42
12.76, 37
12.77, 43
12.78, 45
12.79, 45
12.8, 39
12.81, 38
12.82, 45
12.83, 46
12.84, 44
12.85, 44
12.86, 46
12.87, 44
12.88, 48
12.89, 51
12.9, 37
12.91, 42
12.92, 50
12.93, 36
12.94, 62
12.95, 42
12.96, 53
12.97, 52
12.98, 47
12.99, 56
13, 47
13.01, 44
13.02, 45
13.03, 45
13.04, 49
13.05, 43
13.06, 44
13.07, 44
13.08, 44
13.09, 55
13.1, 44
13.11, 43
13.12, 40
13.13, 56
13.14, 33
13.15, 34
13.16, 42
13.17, 57
13.18, 52
13.19, 59
13.2, 49
13.21, 51
13.22, 42
13.23, 69
13.24, 51
13.25, 41
13.26, 35
13.27, 36
13.28, 58
13.29, 46
13.3, 51
13.31, 52
13.32, 46
13.33, 46
13.34, 48
13.35, 36
13.36, 45
13.37, 36
13.38, 46
13.39, 32
13.4, 45
13.41, 32
13.42, 38
13.43, 48
13.44, 42
13.45, 42
13.46, 47
13.47, 40
13.48, 31
13.49, 39
13.5, 42
13.51, 52
13.52, 49
13.53, 38
13.54, 36
13.55, 49
13.56, 41
13.57, 49
13.58, 38
13.59, 40
13.6, 34
13.61, 44
13.62, 44
13.63, 50
13.64, 50
13.65, 40
13.66, 50
13.67, 35
13.68, 46
13.69, 55
13.7, 49
13.71, 39
13.72, 46
13.73, 50
13.74, 54
13.75, 43
13.76, 56
13.77, 55
13.78, 44
13.79, 44
13.8, 52
13.81, 46
13.82, 51
13.83, 47
13.84, 46
13.85, 56
13.86, 39
13.87, 40
13.88, 57
13.89, 40
13.9, 37
13.91, 43
13.92, 45
13.93, 50
13.94, 46
13.95, 39
13.96, 52
13.97, 46
13.98, 35
13.99, 34
14, 41
14.01, 32
14.02, 43
14.03, 38
14.04, 37
14.05, 37
14.06, 50
14.07, 40
14.08, 36
14.09, 33
14.1, 52
14.11, 49
14.12, 35
14.13, 36
14.14, 37
14.15, 43
14.16, 46
14.17, 53
14.18, 39
14.19, 44
14.2, 33
14.21, 32
14.22, 40
14.23, 41
14.24, 42
14.25, 33
14.26, 38
14.27, 36
14.28, 38
14.29, 46
14.3, 44
14.31, 51
14.32, 40
14.33, 39
14.34, 38
14.35, 39
14.36, 36
14.37, 40
14.38, 35
14.39, 35
14.4, 38
14.41, 44
14.42, 39
14.43, 38
14.44, 44
14.45, 42
14.46, 44
14.47, 57
14.48, 39
14.49, 40
14.5, 32
14.51, 38
14.52, 35
14.53, 34
14.54, 35
14.55, 33
14.56, 33
14.57, 55
14.58, 47
14.59, 43
14.6, 39
14.61, 41
14.62, 48
14.63, 44
14.64, 43
14.65, 38
14.66, 49
14.67, 35
14.68, 41
14.69, 43
14.7, 54
14.71, 34
14.72, 53
14.73, 42
14.74, 34
14.75, 58
14.76, 37
14.77, 46
14.78, 40
14.79, 40
14.8, 52
14.81, 42
14.82, 40
14.83, 46
14.84, 39
14.85, 52
14.86, 38
14.87, 44
14.88, 41
14.89, 36
14.9, 65
14.91, 37
14.92, 42
14.93, 45
14.94, 43
14.95, 42
14.96, 43
14.97, 39
14.98, 39
14.99, 49
15, 38
15.01, 44
15.02, 45
15.03, 48
15.04, 37
15.05, 46
15.06, 35
15.07, 32
15.08, 32
15.09, 36
15.1, 42
15.11, 45
15.12, 47
15.13, 53
15.14, 47
15.15, 32
15.16, 34
15.17, 49
15.18, 53
15.19, 36
15.2, 32
15.21, 39
15.22, 38
15.23, 47
15.24, 51
15.25, 49
15.26, 41
15.27, 39
15.28, 49
15.29, 42
15.3, 42
15.31, 51
15.32, 32
15.33, 50
15.34, 44
15.35, 40
15.36, 49
15.37, 30
15.38, 48
15.39, 43
15.4, 36
15.41, 47
15.42, 42
15.43, 47
15.44, 46
15.45, 41
15.46, 44
15.47, 46
15.48, 45
15.49, 51
15.5, 47
15.51, 50
15.52, 41
15.53, 44
15.54, 35
15.55, 44
15.56, 44
15.57, 40
15.58, 48
15.59, 46
15.6, 42
15.61, 55
15.62, 24
15.63, 39
15.64, 48
15.65, 36
15.66, 37
15.67, 38
15.68, 32
15.69, 49
15.7, 38
15.71, 40
15.72, 36
15.73, 48
15.74, 43
15.75, 31
15.76, 37
15.77, 38
15.78, 48
15.79, 44
15.8, 50
15.81, 43
15.82, 52
15.83, 50
15.84, 36
15.85, 49
15.86, 55
15.87, 43
15.88, 53
15.89, 37
15.9, 47
15.91, 47
15.92, 43
15.93, 42
15.94, 41
15.95, 47
15.96, 47
15.97, 32
15.98, 39
15.99, 53
16, 46
16.01, 38
16.02, 41
16.03, 45
16.04, 36
16.05, 46
16.06, 48
16.07, 45
16.08, 43
16.09, 39
16.1, 44
16.11, 37
16.12, 41
16.13, 47
16.14, 39
16.15, 50
16.16, 42
16.17, 35
16.18, 53
16.19, 44
16.2, 41
16.21, 49
16.22, 53
16.23, 48
16.24, 35
16.25, 32
16.26, 44
16.27, 52
16.28, 38
16.29, 30
16.3, 43
16.31, 43
16.32, 43
16.33, 36
16.34, 41
16.35, 52
16.36, 48
16.37, 33
16.38, 41
16.39, 42
16.4, 45
16.41, 36
16.42, 37
16.43, 61
16.44, 39
16.45, 35
16.46, 42
16.47, 53
16.48, 45
16.49, 31
16.5, 38
16.51, 39
16.52, 50
16.53, 43
16.54, 38
16.55, 42
16.56, 48
16.57, 44
16.58, 49
16.59, 41
16.6, 43
16.61, 45
16.62, 47
16.63, 38
16.64, 41
16.65, 41
16.66, 52
16.67, 46
16.68, 46
16.69, 43
16.7, 49
16.71, 32
16.72, 33
16.73, 46
16.74, 53
16.75, 38
16.76, 51
16.77, 45
16.78, 44
16.79, 33
16.8, 42
16.81, 28
16.82, 41
16.83, 45
16.84, 35
16.85, 40
16.86, 41
16.87, 27
16.88, 40
16.89, 48
16.9, 38
16.91, 37
16.92, 41
16.93, 41
16.94, 38
16.95, 38
16.96, 46
16.97, 44
16.98, 35
16.99, 43
17, 44
17.01, 55
17.02, 44
17.03, 49
17.04, 49
17.05, 42
17.06, 50
17.07, 46
17.08, 44
17.09, 35
17.1, 36
17.11, 43
17.12, 32
17.13, 39
17.14, 55
17.15, 50
17.16, 42
17.17, 53
17.18, 43
17.19, 54
17.2, 50
17.21, 45
17.22, 39
17.23, 38
17.24, 47
17.25, 45
17.26, 43
17.27, 34
17.28, 56
17.29, 41
17.3, 41
17.31, 34
17.32, 40
17.33, 30
17.34, 44
17.35, 48
17.36, 35
17.37, 37
17.38, 49
17.39, 31
17.4, 45
17.41, 50
17.42, 37
17.43, 39
17.44, 49
17.45, 39
17.46, 48
17.47, 44
17.48, 33
17.49, 48
17.5, 48
17.51, 51
17.52, 46
17.53, 51
17.54, 50
17.55, 41
17.56, 39
17.57, 51
17.58, 47
17.59, 42
17.6, 33
17.61, 41
17.62, 38
17.63, 55
17.64, 51
17.65, 51
17.66, 36
17.67, 41
17.68, 51
17.69, 45
17.7, 49
17.71, 46
17.72, 45
17.73, 50
17.74, 44
17.75, 30
17.76, 43
17.77, 41
17.78, 42
17.79, 49
17.8, 40
17.81, 40
17.82, 46
17.83, 49
17.84, 42
17.85, 46
17.86, 46
17.87, 42
17.88, 41
17.89, 46
17.9, 35
17.91, 41
17.92, 26
17.93, 57
17.94, 35
17.95, 49
17.96, 40
17.97, 38
17.98, 47
17.99, 40
18, 35
18.01, 39
18.02, 34
18.03, 43
18.04, 38
18.05, 38
18.06, 47
18.07, 43
18.08, 58
18.09, 43
18.1, 48
18.11, 37
18.12, 45
18.13, 53
18.14, 54
18.15, 39
18.16, 47
18.17, 49
18.18, 48
18.19, 47
18.2, 36
18.21, 50
18.22, 48
18.23, 47
18.24, 55
18.25, 38
18.26, 46
18.27, 26
18.28, 35
18.29, 56
18.3, 34
18.31, 44
18.32, 61
18.33, 44
18.34, 38
18.35, 32
18.36, 36
18.37, 52
18.38, 32
18.39, 46
18.4, 33
18.41, 41
18.42, 42
18.43, 48
18.44, 39
18.45, 30
18.46, 42
18.47, 43
18.48, 48
18.49, 35
18.5, 50
18.51, 50
18.52, 47
18.53, 46
18.54, 42
18.55, 47
18.56, 38
18.57, 39
18.58, 43
18.59, 55
18.6, 41
18.61, 41
18.62, 48
18.63, 33
18.64, 39
18.65, 40
18.66, 29
18.67, 36
18.68, 35
18.69, 36
18.7, 43
18.71, 43
18.72, 37
18.73, 29
18.74, 35
18.75, 44
18.76, 45
18.77, 38
18.78, 39
18.79, 33
18.8, 44
18.81, 35
18.82, 47
18.83, 33
18.84, 37
18.85, 45
18.86, 42
18.87, 46
18.88, 39
18.89, 46
18.9, 39
18.91, 41
18.92, 29
18.93, 34
18.94, 43
18.95, 44
18.96, 32
18.97, 46
18.98, 43
18.99, 38
19, 45
19.01, 53
19.02, 52
19.03, 29
19.04, 39
19.05, 28
19.06, 37
19.07, 40
19.08, 37
19.09, 40
19.1, 36
19.11, 44
19.12, 38
19.13, 38
19.14, 48
19.15, 40
19.16, 43
19.17, 43
19.18, 40
19.19, 48
19.2, 39
19.21, 43
19.22, 37
19.23, 38
19.24, 36
19.25, 40
19.26, 36
19.27, 53
19.28, 32
19.29, 41
19.3, 42
19.31, 42
19.32, 36
19.33, 35
19.34, 45
19.35, 32
19.36, 37
19.37, 33
19.38, 35
19.39, 28
19.4, 34
19.41, 43
19.42, 42
19.43, 33
19.44, 36
19.45, 30
19.46, 33
19.47, 45
19.48, 41
19.49, 35
19.5, 30
19.51, 32
19.52, 53
19.53, 45
19.54, 40
19.55, 32
19.56, 31
19.57, 42
19.58, 45
19.59, 57
19.6, 33
19.61, 28
19.62, 42
19.63, 41
19.64, 39
19.65, 44
19.66, 32
19.67, 42
19.68, 47
19.69, 33
19.7, 41
19.71, 32
19.72, 35
19.73, 30
19.74, 44
19.75, 41
19.76, 58
19.77, 41
19.78, 28
19.79, 38
19.8, 39
19.81, 47
19.82, 49
19.83, 45
19.84, 40
19.85, 43
19.86, 41
19.87, 54
19.88, 38
19.89, 36
19.9, 40
19.91, 37
19.92, 38
19.93, 38
19.94, 30
19.95, 40
19.96, 23
19.97, 40
19.98, 45
19.99, 36
20, 43
20.01, 36
20.02, 31
20.03, 39
20.04, 37
20.05, 44
20.06, 39
20.07, 36
20.08, 48
20.09, 37
20.1, 35
20.11, 52
20.12, 48
20.13, 40
20.14, 43
20.15, 46
20.16, 32
20.17, 35
20.18, 37
20.19, 49
20.2, 45
20.21, 31
20.22, 29
20.23, 31
20.24, 39
20.25, 45
20.26, 33
20.27, 57
20.28, 40
20.29, 42
20.3, 40
20.31, 36
20.32, 34
20.33, 37
20.34, 42
20.35, 31
20.36, 32
20.37, 44
20.38, 36
20.39, 34
20.4, 37
20.41, 36
20.42, 44
20.43, 52
20.44, 37
20.45, 32
20.46, 40
20.47, 36
20.48, 50
20.49, 39
20.5, 41
20.51, 39
20.52, 34
20.53, 44
20.54, 28
20.55, 34
20.56, 34
20.57, 44
20.58, 37
20.59, 45
20.6, 35
20.61, 52
20.62, 32
20.63, 46
20.64, 37
20.65, 37
20.66, 48
20.67, 34
20.68, 31
20.69, 45
20.7, 51
20.71, 30
20.72, 37
20.73, 34
20.74, 30
20.75, 42
20.76, 41
20.77, 47
20.78, 42
20.79, 51
20.8, 44
20.81, 50
20.82, 41
20.83, 44
20.84, 50
20.85, 40
20.86, 45
20.87, 37
20.88, 34
20.89, 40
20.9, 31
20.91, 38
20.92, 48
20.93, 31
20.94, 34
20.95, 49
20.96, 31
20.97, 37
20.98, 39
20.99, 41
21, 34
21.01, 40
21.02, 41
21.03, 40
21.04, 36
21.05, 48
21.06, 38
21.07, 29
21.08, 35
21.09, 38
21.1, 32
21.11, 28
21.12, 30
21.13, 32
21.14, 36
21.15, 32
21.16, 32
21.17, 36
21.18, 39
21.19, 34
21.2, 29
21.21, 29
21.22, 36
21.23, 29
21.24, 35
21.25, 24
21.26, 38
21.27, 35
21.28, 31
21.29, 32
21.3, 30
21.31, 48
21.32, 31
21.33, 32
21.34, 32
21.35, 33
21.36, 35
21.37, 28
21.38, 40
21.39, 37
21.4, 32
21.41, 41
21.42, 28
21.43, 33
21.44, 38
21.45, 28
21.46, 27
21.47, 28
21.48, 35
21.49, 45
21.5, 30
21.51, 39
21.52, 28
21.53, 34
21.54, 33
21.55, 42
21.56, 28
21.57, 34
21.58, 43
21.59, 39
21.6, 31
21.61, 33
21.62, 41
21.63, 38
21.64, 33
21.65, 38
21.66, 26
21.67, 42
21.68, 30
21.69, 30
21.7, 29
21.71, 38
21.72, 36
21.73, 41
21.74, 33
21.75, 25
21.76, 36
21.77, 28
21.78, 35
21.79, 30
21.8, 30
21.81, 34
21.82, 45
21.83, 30
21.84, 42
21.85, 35
21.86, 33
21.87, 29
21.88, 34
21.89, 29
21.9, 42
21.91, 27
21.92, 34
21.93, 34
21.94, 25
21.95, 36
21.96, 18
21.97, 28
21.98, 34
21.99, 22
22, 27
22.01, 31
22.02, 31
22.03, 29
22.04, 34
22.05, 38
22.06, 38
22.07, 32
22.08, 40
22.09, 44
22.1, 30
22.11, 22
22.12, 32
22.13, 32
22.14, 27
22.15, 39
22.16, 27
22.17, 30
22.18, 30
22.19, 32
22.2, 26
22.21, 27
22.22, 29
22.23, 30
22.24, 33
22.25, 35
22.26, 40
22.27, 37
22.28, 34
22.29, 48
22.3, 37
22.31, 26
22.32, 28
22.33, 32
22.34, 35
22.35, 34
22.36, 38
22.37, 37
22.38, 33
22.39, 40
22.4, 29
22.41, 32
22.42, 29
22.43, 42
22.44, 38
22.45, 33
22.46, 43
22.47, 22
22.48, 26
22.49, 34
22.5, 33
22.51, 31
22.52, 31
22.53, 42
22.54, 26
22.55, 44
22.56, 45
22.57, 26
22.58, 28
22.59, 36
22.6, 28
22.61, 38
22.62, 35
22.63, 38
22.64, 38
22.65, 33
22.66, 27
22.67, 32
22.68, 37
22.69, 39
22.7, 28
22.71, 47
22.72, 34
22.73, 46
22.74, 38
22.75, 31
22.76, 34
22.77, 26
22.78, 47
22.79, 35
22.8, 34
22.81, 47
22.82, 39
22.83, 54
22.84, 42
22.85, 47
22.86, 51
22.87, 41
22.88, 44
22.89, 52
22.9, 49
22.91, 46
22.92, 52
22.93, 74
22.94, 80
22.95, 88
22.96, 86
22.97, 112
22.98, 139
22.99, 152
23, 172
23.01, 220
23.02, 227
23.03, 255
23.04, 247
23.05, 242
23.06, 298
23.07, 259
23.08, 273
23.09, 241
23.1, 229
23.11, 184
23.12, 151
23.13, 128
23.14, 135
23.15, 123
23.16, 110
23.17, 86
23.18, 84
23.19, 64
23.2, 68
23.21, 65
23.22, 61
23.23, 58
23.24, 50
23.25, 36
23.26, 53
23.27, 44
23.28, 51
23.29, 34
23.3, 43
23.31, 43
23.32, 32
23.33, 45
23.34, 38
23.35, 44
23.36, 40
23.37, 40
23.38, 38
23.39, 36
23.4, 28
23.41, 31
23.42, 42
23.43, 39
23.44, 32
23.45, 30
23.46, 42
23.47, 34
23.48, 32
23.49, 38
23.5, 38
23.51, 37
23.52, 30
23.53, 29
23.54, 31
23.55, 30
23.56, 30
23.57, 34
23.58, 40
23.59, 29
23.6, 39
23.61, 30
23.62, 45
23.63, 35
23.64, 41
23.65, 37
23.66, 48
23.67, 49
23.68, 29
23.69, 41
23.7, 46
23.71, 36
23.72, 33
23.73, 38
23.74, 28
23.75, 31
23.76, 36
23.77, 31
23.78, 25
23.79, 31
23.8, 30
23.81, 32
23.82, 28
23.83, 28
23.84, 27
23.85, 31
23.86, 32
23.87, 32
23.88, 30
23.89, 41
23.9, 35
23.91, 24
23.92, 31
23.93, 39
23.94, 38
23.95, 34
23.96, 34
23.97, 38
23.98, 37
23.99, 33
24, 26
24.01, 41
24.02, 27
24.03, 38
24.04, 31
24.05, 23
24.06, 40
24.07, 34
24.08, 31
24.09, 35
24.1, 32
24.11, 38
24.12, 28
24.13, 34
24.14, 31
24.15, 26
24.16, 30
24.17, 29
24.18, 35
24.19, 45
24.2, 32
24.21, 31
24.22, 29
24.23, 29
24.24, 36
24.25, 30
24.26, 35
24.27, 32
24.28, 42
24.29, 39
24.3, 33
24.31, 37
24.32, 33
24.33, 42
24.34, 45
24.35, 47
24.36, 47
24.37, 43
24.38, 37
24.39, 57
24.4, 43
24.41, 46
24.42, 41
24.43, 44
24.44, 38
24.45, 39
24.46, 38
24.47, 33
24.48, 35
24.49, 26
24.5, 24
24.51, 26
24.52, 33
24.53, 33
24.54, 32
24.55, 31
24.56, 37
24.57, 32
24.58, 34
24.59, 30
24.6, 28
24.61, 33
24.62, 23
24.63, 30
24.64, 45
24.65, 44
24.66, 34
24.67, 33
24.68, 36
24.69, 27
24.7, 31
24.71, 41
24.72, 34
24.73, 23
24.74, 28
24.75, 42
24.76, 44
24.77, 27
24.78, 26
24.79, 35
24.8, 26
24.81, 40
24.82, 25
24.83, 28
24.84, 28
24.85, 26
24.86, 31
24.87, 29
24.88, 23
24.89, 39
24.9, 24
24.91, 27
24.92, 22
24.93, 35
24.94, 35
24.95, 25
24.96, 27
24.97, 46
24.98, 28
24.99, 39
25, 27
25.01, 24
25.02, 26
25.03, 29
25.04, 34
25.05, 25
25.06, 31
25.07, 29
25.08, 22
25.09, 36
25.1, 29
25.11, 34
25.12, 29
25.13, 25
25.14, 32
25.15, 22
25.16, 30
25.17, 24
25.18, 23
25.19, 27
25.2, 33
25.21, 43
25.22, 27
25.23, 31
25.24, 32
25.25, 29
25.26, 25
25.27, 29
25.28, 33
25.29, 28
25.3, 30
25.31, 31
25.32, 39
25.33, 36
25.34, 27
25.35, 30
25.36, 23
25.37, 31
25.38, 33
25.39, 22
25.4, 29
25.41, 34
25.42, 34
25.43, 41
25.44, 30
25.45, 33
25.46, 30
25.47, 29
25.48, 22
25.49, 28
25.5, 32
25.51, 29
25.52, 36
25.53, 42
25.54, 25
25.55, 28
25.56, 26
25.57, 32
25.58, 36
25.59, 32
25.6, 44
25.61, 29
25.62, 32
25.63, 29
25.64, 32
25.65, 30
25.66, 28
25.67, 32
25.68, 23
25.69, 41
25.7, 25
25.71, 25
25.72, 36
25.73, 19
25.74, 26
25.75, 45
25.76, 15
25.77, 36
25.78, 25
25.79, 44
25.8, 22
25.81, 21
25.82, 29
25.83, 30
25.84, 31
25.85, 36
25.86, 25
25.87, 21
25.88, 27
25.89, 23
25.9, 31
25.91, 28
25.92, 31
25.93, 24
25.94, 38
25.95, 23
25.96, 28
25.97, 41
25.98, 23
25.99, 28
26, 25
26.01, 26
26.02, 41
26.03, 37
26.04, 41
26.05, 33
26.06, 26
26.07, 24
26.08, 25
26.09, 36
26.1, 20
26.11, 34
26.12, 28
26.13, 31
26.14, 32
26.15, 46
26.16, 39
26.17, 40
26.18, 36
26.19, 28
26.2, 33
26.21, 20
26.22, 17
26.23, 36
26.24, 39
26.25, 21
26.26, 33
26.27, 38
26.28, 23
26.29, 47
26.3, 35
26.31, 44
26.32, 37
26.33, 35
26.34, 34
26.35, 36
26.36, 24
26.37, 43
26.38, 29
26.39, 31
26.4, 38
26.41, 51
26.42, 41
26.43, 48
26.44, 63
26.45, 60
26.46, 83
26.47, 95
26.48, 85
26.49, 87
26.5, 106
26.51, 110
26.52, 104
26.53, 84
26.54, 94
26.55, 111
26.56, 88
26.57, 60
26.58, 63
26.59, 39
26.6, 42
26.61, 36
26.62, 48
26.63, 37
26.64, 46
26.65, 41
26.66, 37
26.67, 40
26.68, 33
26.69, 51
26.7, 37
26.71, 26
26.72, 30
26.73, 36
26.74, 30
26.75, 29
26.76, 37
26.77, 38
26.78, 49
26.79, 34
26.8, 31
26.81, 26
26.82, 27
26.83, 21
26.84, 31
26.85, 36
26.86, 33
26.87, 44
26.88, 30
26.89, 39
26.9, 33
26.91, 33
26.92, 28
26.93, 29
26.94, 23
26.95, 39
26.96, 40
26.97, 31
26.98, 34
26.99, 33
27, 33
27.01, 27
27.02, 27
27.03, 35
27.04, 31
27.05, 50
27.06, 35
27.07, 41
27.08, 31
27.09, 39
27.1, 24
27.11, 28
27.12, 34
27.13, 27
27.14, 27
27.15, 33
27.16, 41
27.17, 26
27.18, 26
27.19, 34
27.2, 31
27.21, 26
27.22, 29
27.23, 23
27.24, 29
27.25, 26
27.26, 40
27.27, 35
27.28, 22
27.29, 32
27.3, 30
27.31, 31
27.32, 34
27.33, 40
27.34, 39
27.35, 24
27.36, 36
27.37, 39
27.38, 28
27.39, 27
27.4, 32
27.41, 37
27.42, 37
27.43, 28
27.44, 25
27.45, 32
27.46, 33
27.47, 40
27.48, 31
27.49, 26
27.5, 31
27.51, 38
27.52, 34
27.53, 29
27.54, 35
27.55, 22
27.56, 35
27.57, 32
27.58, 24
27.59, 24
27.6, 32
27.61, 38
27.62, 32
27.63, 32
27.64, 24
27.65, 26
27.66, 24
27.67, 26
27.68, 23
27.69, 30
27.7, 28
27.71, 33
27.72, 28
27.73, 24
27.74, 30
27.75, 28
27.76, 48
27.77, 38
27.78, 28
27.79, 35
27.8, 37
27.81, 29
27.82, 37
27.83, 25
27.84, 18
27.85, 32
27.86, 36
27.87, 29
27.88, 30
27.89, 29
27.9, 25
27.91, 34
27.92, 40
27.93, 22
27.94, 34
27.95, 34
27.96, 43
27.97, 30
27.98, 34
27.99, 31
28, 29
28.01, 30
28.02, 43
28.03, 33
28.04, 24
28.05, 20
28.06, 32
28.07, 31
28.08, 31
28.09, 28
28.1, 35
28.11, 51
28.12, 35
28.13, 33
28.14, 33
28.15, 42
28.16, 29
28.17, 34
28.18, 35
28.19, 34
28.2, 26
28.21, 30
28.22, 37
28.23, 36
28.24, 26
28.25, 36
28.26, 26
28.27, 34
28.28, 41
28.29, 34
28.3, 34
28.31, 36
28.32, 39
28.33, 45
28.34, 45
28.35, 54
28.36, 34
28.37, 55
28.38, 47
28.39, 48
28.4, 49
28.41, 39
28.42, 47
28.43, 65
28.44, 44
28.45, 50
28.46, 43
28.47, 35
28.48, 56
28.49, 43
28.5, 63
28.51, 49
28.52, 47
28.53, 49
28.54, 52
28.55, 47
28.56, 58
28.57, 43
28.58, 47
28.59, 38
28.6, 45
28.61, 45
28.62, 52
28.63, 60
28.64, 53
28.65, 51
28.66, 55
28.67, 42
28.68, 42
28.69, 52
28.7, 52
28.71, 44
28.72, 33
28.73, 49
28.74, 37
28.75, 56
28.76, 60
28.77, 46
28.78, 46
28.79, 59
28.8, 59
28.81, 56
28.82, 46
28.83, 55
28.84, 70
28.85, 53
28.86, 51
28.87, 57
28.88, 60
28.89, 69
28.9, 63
28.91, 64
28.92, 52
28.93, 66
28.94, 46
28.95, 67
28.96, 69
28.97, 72
28.98, 64
28.99, 86
29, 71
29.01, 76
29.02, 85
29.03, 84
29.04, 92
29.05, 107
29.06, 95
29.07, 95
29.08, 99
29.09, 116
29.1, 129
29.11, 120
29.12, 120
29.13, 131
29.14, 125
29.15, 155
29.16, 158
29.17, 184
29.18, 201
29.19, 193
29.2, 206
29.21, 232
29.22, 249
29.23, 268
29.24, 274
29.25, 343
29.26, 378
29.27, 469
29.28, 473
29.29, 510
29.3, 674
29.31, 792
29.32, 1034
29.33, 1368
29.34, 1868
29.35, 2372
29.36, 3090
29.37, 3464
29.38, 3826
29.39, 3900
29.4, 4108
29.41, 4218
29.42, 4150
29.43, 4207
29.44, 3767
29.45, 3290
29.46, 2907
29.47, 2550
29.48, 2331
29.49, 2087
29.5, 1858
29.51, 1569
29.52, 1293
29.53, 1021
29.54, 745
29.55, 555
29.56, 474
29.57, 441
29.58, 360
29.59, 356
29.6, 338
29.61, 275
29.62, 244
29.63, 236
29.64, 257
29.65, 209
29.66, 196
29.67, 205
29.68, 187
29.69, 205
29.7, 162
29.71, 140
29.72, 117
29.73, 149
29.74, 127
29.75, 120
29.76, 104
29.77, 112
29.78, 92
29.79, 90
29.8, 84
29.81, 73
29.82, 82
29.83, 70
29.84, 90
29.85, 72
29.86, 70
29.87, 56
29.88, 67
29.89, 81
29.9, 63
29.91, 51
29.92, 68
29.93, 56
29.94, 54
29.95, 67
29.96, 64
29.97, 48
29.98, 52
29.99, 46
30, 52
30.01, 64
30.02, 48
30.03, 53
30.04, 51
30.05, 45
30.06, 43
30.07, 51
30.08, 42
30.09, 63
30.1, 56
30.11, 48
30.12, 52
30.13, 37
30.14, 51
30.15, 55
30.16, 42
30.17, 44
30.18, 43
30.19, 55
30.2, 54
30.21, 47
30.22, 44
30.23, 50
30.24, 40
30.25, 41
30.26, 38
30.27, 46
30.28, 46
30.29, 41
30.3, 52
30.31, 47
30.32, 54
30.33, 50
30.34, 58
30.35, 48
30.36, 53
30.37, 39
30.38, 36
30.39, 41
30.4, 44
30.41, 48
30.42, 42
30.43, 53
30.44, 53
30.45, 44
30.46, 40
30.47, 37
30.48, 38
30.49, 39
30.5, 56
30.51, 43
30.52, 36
30.53, 43
30.54, 52
30.55, 52
30.56, 32
30.57, 38
30.58, 40
30.59, 39
30.6, 40
30.61, 34
30.62, 46
30.63, 36
30.64, 42
30.65, 35
30.66, 42
30.67, 30
30.68, 29
30.69, 43
30.7, 37
30.71, 41
30.72, 42
30.73, 37
30.74, 37
30.75, 30
30.76, 31
30.77, 32
30.78, 42
30.79, 33
30.8, 51
30.81, 29
30.82, 54
30.83, 34
30.84, 34
30.85, 28
30.86, 39
30.87, 39
30.88, 39
30.89, 33
30.9, 38
30.91, 43
30.92, 41
30.93, 35
30.94, 45
30.95, 43
30.96, 47
30.97, 36
30.98, 34
30.99, 32
31, 31
31.01, 38
31.02, 31
31.03, 41
31.04, 40
31.05, 45
31.06, 39
31.07, 40
31.08, 37
31.09, 35
31.1, 42
31.11, 37
31.12, 40
31.13, 28
31.14, 42
31.15, 44
31.16, 35
31.17, 39
31.18, 44
31.19, 44
31.2, 47
31.21, 41
31.22, 41
31.23, 38
31.24, 44
31.25, 47
31.26, 59
31.27, 36
31.28, 39
31.29, 36
31.3, 35
31.31, 53
31.32, 32
31.33, 45
31.34, 48
31.35, 42
31.36, 66
31.37, 73
31.38, 74
31.39, 79
31.4, 87
31.41, 99
31.42, 120
31.43, 91
31.44, 112
31.45, 112
31.46, 124
31.47, 87
31.48, 102
31.49, 109
31.5, 86
31.51, 91
31.52, 88
31.53, 80
31.54, 69
31.55, 52
31.56, 57
31.57, 66
31.58, 58
31.59, 36
31.6, 41
31.61, 53
31.62, 45
31.63, 37
31.64, 37
31.65, 32
31.66, 41
31.67, 39
31.68, 35
31.69, 38
31.7, 43
31.71, 33
31.72, 35
31.73, 37
31.74, 41
31.75, 49
31.76, 46
31.77, 51
31.78, 33
31.79, 24
31.8, 40
31.81, 38
31.82, 35
31.83, 24
31.84, 43
31.85, 34
31.86, 43
31.87, 40
31.88, 31
31.89, 43
31.9, 39
31.91, 36
31.92, 37
31.93, 41
31.94, 33
31.95, 32
31.96, 36
31.97, 36
31.98, 38
31.99, 25
32, 43
32.01, 30
32.02, 34
32.03, 35
32.04, 36
32.05, 26
32.06, 36
32.07, 47
32.08, 36
32.09, 43
32.1, 40
32.11, 28
32.12, 36
32.13, 29
32.14, 43
32.15, 33
32.16, 31
32.17, 30
32.18, 35
32.19, 43
32.2, 25
32.21, 35
32.22, 35
32.23, 37
32.24, 31
32.25, 28
32.26, 32
32.27, 24
32.28, 33
32.29, 36
32.3, 32
32.31, 27
32.32, 44
32.33, 29
32.34, 37
32.35, 39
32.36, 36
32.37, 49
32.38, 33
32.39, 24
32.4, 29
32.41, 28
32.42, 47
32.43, 31
32.44, 44
32.45, 36
32.46, 28
32.47, 38
32.48, 44
32.49, 26
32.5, 28
32.51, 35
32.52, 40
32.53, 38
32.54, 30
32.55, 39
32.56, 31
32.57, 29
32.58, 31
32.59, 35
32.6, 33
32.61, 44
32.62, 27
32.63, 32
32.64, 31
32.65, 38
32.66, 31
32.67, 36
32.68, 32
32.69, 31
32.7, 33
32.71, 36
32.72, 31
32.73, 29
32.74, 38
32.75, 41
32.76, 37
32.77, 31
32.78, 35
32.79, 19
32.8, 34
32.81, 29
32.82, 38
32.83, 29
32.84, 25
32.85, 26
32.86, 34
32.87, 39
32.88, 30
32.89, 34
32.9, 23
32.91, 29
32.92, 30
32.93, 31
32.94, 34
32.95, 33
32.96, 36
32.97, 37
32.98, 33
32.99, 35
33, 24
33.01, 35
33.02, 23
33.03, 36
33.04, 34
33.05, 32
33.06, 36
33.07, 40
33.08, 26
33.09, 37
33.1, 27
33.11, 33
33.12, 33
33.13, 24
33.14, 30
33.15, 35
33.16, 30
33.17, 27
33.18, 22
33.19, 31
33.2, 25
33.21, 26
33.22, 32
33.23, 23
33.24, 23
33.25, 33
33.26, 34
33.27, 33
33.28, 27
33.29, 19
33.3, 34
33.31, 37
33.32, 26
33.33, 28
33.34, 34
33.35, 33
33.36, 44
33.37, 27
33.38, 27
33.39, 40
33.4, 31
33.41, 31
33.42, 26
33.43, 27
33.44, 39
33.45, 32
33.46, 32
33.47, 28
33.48, 27
33.49, 30
33.5, 25
33.51, 30
33.52, 30
33.53, 20
33.54, 32
33.55, 33
33.56, 21
33.57, 25
33.58, 21
33.59, 36
33.6, 35
33.61, 32
33.62, 19
33.63, 35
33.64, 35
33.65, 33
33.66, 39
33.67, 28
33.68, 31
33.69, 26
33.7, 26
33.71, 29
33.72, 33
33.73, 27
33.74, 29
33.75, 31
33.76, 30
33.77, 31
33.78, 25
33.79, 27
33.8, 26
33.81, 32
33.82, 36
33.83, 39
33.84, 23
33.85, 31
33.86, 29
33.87, 33
33.88, 32
33.89, 28
33.9, 25
33.91, 31
33.92, 30
33.93, 28
33.94, 23
33.95, 23
33.96, 36
33.97, 35
33.98, 36
33.99, 27
34, 26
34.01, 33
34.02, 35
34.03, 27
34.04, 30
34.05, 30
34.06, 35
34.07, 27
34.08, 32
34.09, 33
34.1, 29
34.11, 24
34.12, 22
34.13, 23
34.14, 30
34.15, 25
34.16, 32
34.17, 20
34.18, 24
34.19, 24
34.2, 29
34.21, 20
34.22, 24
34.23, 27
34.24, 25
34.25, 42
34.26, 19
34.27, 22
34.28, 19
34.29, 36
34.3, 35
34.31, 22
34.32, 22
34.33, 24
34.34, 32
34.35, 25
34.36, 20
34.37, 17
34.38, 38
34.39, 30
34.4, 25
34.41, 30
34.42, 26
34.43, 32
34.44, 32
34.45, 26
34.46, 27
34.47, 28
34.48, 30
34.49, 18
34.5, 33
34.51, 28
34.52, 24
34.53, 38
34.54, 32
34.55, 23
34.56, 29
34.57, 32
34.58, 23
34.59, 36
34.6, 31
34.61, 29
34.62, 26
34.63, 29
34.64, 23
34.65, 34
34.66, 30
34.67, 24
34.68, 16
34.69, 37
34.7, 21
34.71, 26
34.72, 31
34.73, 29
34.74, 36
34.75, 21
34.76, 19
34.77, 26
34.78, 27
34.79, 22
34.8, 33
34.81, 19
34.82, 28
34.83, 21
34.84, 37
34.85, 28
34.86, 31
34.87, 22
34.88, 38
34.89, 30
34.9, 32
34.91, 23
34.92, 31
34.93, 28
34.94, 26
34.95, 15
34.96, 25
34.97, 42
34.98, 32
34.99, 29
35, 31
35.01, 27
35.02, 34
35.03, 23
35.04, 30
35.05, 30
35.06, 28
35.07, 31
35.08, 29
35.09, 23
35.1, 32
35.11, 28
35.12, 27
35.13, 31
35.14, 29
35.15, 18
35.16, 23
35.17, 40
35.18, 21
35.19, 31
35.2, 26
35.21, 38
35.22, 37
35.23, 29
35.24, 33
35.25, 32
35.26, 23
35.27, 27
35.28, 37
35.29, 27
35.3, 26
35.31, 32
35.32, 39
35.33, 35
35.34, 32
35.35, 40
35.36, 27
35.37, 35
35.38, 27
35.39, 28
35.4, 27
35.41, 32
35.42, 34
35.43, 38
35.44, 33
35.45, 37
35.46, 29
35.47, 49
35.48, 39
35.49, 36
35.5, 34
35.51, 32
35.52, 34
35.53, 37
35.54, 37
35.55, 39
35.56, 34
35.57, 33
35.58, 33
35.59, 32
35.6, 35
35.61, 30
35.62, 42
35.63, 44
35.64, 38
35.65, 37
35.66, 33
35.67, 32
35.68, 38
35.69, 35
35.7, 33
35.71, 48
35.72, 30
35.73, 43
35.74, 47
35.75, 43
35.76, 37
35.77, 50
35.78, 49
35.79, 58
35.8, 49
35.81, 54
35.82, 45
35.83, 52
35.84, 66
35.85, 59
35.86, 82
35.87, 86
35.88, 98
35.89, 114
35.9, 171
35.91, 176
35.92, 226
35.93, 249
35.94, 291
35.95, 296
35.96, 334
35.97, 320
35.98, 323
35.99, 320
36, 289
36.01, 283
36.02, 249
36.03, 233
36.04, 228
36.05, 219
36.06, 224
36.07, 225
36.08, 201
36.09, 175
36.1, 136
36.11, 127
36.12, 99
36.13, 97
36.14, 86
36.15, 67
36.16, 59
36.17, 55
36.18, 59
36.19, 53
36.2, 54
36.21, 54
36.22, 50
36.23, 58
36.24, 44
36.25, 44
36.26, 43
36.27, 38
36.28, 30
36.29, 39
36.3, 44
36.31, 39
36.32, 30
36.33, 41
36.34, 37
36.35, 28
36.36, 39
36.37, 39
36.38, 24
36.39, 39
36.4, 33
36.41, 32
36.42, 36
36.43, 29
36.44, 36
36.45, 32
36.46, 31
36.47, 35
36.48, 22
36.49, 27
36.5, 34
36.51, 31
36.52, 37
36.53, 23
36.54, 24
36.55, 32
36.56, 31
36.57, 25
36.58, 19
36.59, 31
36.6, 25
36.61, 28
36.62, 21
36.63, 34
36.64, 37
36.65, 25
36.66, 32
36.67, 21
36.68, 20
36.69, 23
36.7, 25
36.71, 21
36.72, 23
36.73, 33
36.74, 33
36.75, 31
36.76, 30
36.77, 19
36.78, 20
36.79, 31
36.8, 18
36.81, 26
36.82, 29
36.83, 20
36.84, 24
36.85, 27
36.86, 33
36.87, 20
36.88, 33
36.89, 27
36.9, 28
36.91, 25
36.92, 28
36.93, 18
36.94, 29
36.95, 25
36.96, 24
36.97, 30
36.98, 33
36.99, 20
37, 26
37.01, 31
37.02, 24
37.03, 28
37.04, 28
37.05, 24
37.06, 26
37.07, 24
37.08, 22
37.09, 22
37.1, 24
37.11, 26
37.12, 25
37.13, 21
37.14, 25
37.15, 20
37.16, 33
37.17, 25
37.18, 29
37.19, 21
37.2, 18
37.21, 27
37.22, 26
37.23, 16
37.24, 27
37.25, 22
37.26, 33
37.27, 26
37.28, 29
37.29, 19
37.3, 18
37.31, 19
37.32, 27
37.33, 20
37.34, 30
37.35, 25
37.36, 26
37.37, 19
37.38, 27
37.39, 26
37.4, 33
37.41, 19
37.42, 34
37.43, 27
37.44, 25
37.45, 22
37.46, 14
37.47, 25
37.48, 18
37.49, 22
37.5, 38
37.51, 22
37.52, 29
37.53, 19
37.54, 29
37.55, 20
37.56, 31
37.57, 25
37.58, 21
37.59, 28
37.6, 25
37.61, 37
37.62, 21
37.63, 26
37.64, 24
37.65, 20
37.66, 18
37.67, 30
37.68, 22
37.69, 22
37.7, 25
37.71, 16
37.72, 21
37.73, 20
37.74, 31
37.75, 22
37.76, 33
37.77, 37
37.78, 21
37.79, 18
37.8, 24
37.81, 19
37.82, 29
37.83, 28
37.84, 20
37.85, 20
37.86, 27
37.87, 25
37.88, 31
37.89, 30
37.9, 25
37.91, 27
37.92, 26
37.93, 18
37.94, 18
37.95, 25
37.96, 14
37.97, 28
37.98, 40
37.99, 38
38, 30
38.01, 20
38.02, 33
38.03, 25
38.04, 26
38.05, 15
38.06, 23
38.07, 29
38.08, 31
38.09, 24
38.1, 30
38.11, 31
38.12, 31
38.13, 20
38.14, 23
38.15, 28
38.16, 27
38.17, 19
38.18, 26
38.19, 34
38.2, 30
38.21, 23
38.22, 30
38.23, 25
38.24, 19
38.25, 27
38.26, 23
38.27, 23
38.28, 27
38.29, 31
38.3, 23
38.31, 22
38.32, 24
38.33, 42
38.34, 34
38.35, 27
38.36, 38
38.37, 20
38.38, 16
38.39, 29
38.4, 34
38.41, 28
38.42, 24
38.43, 18
38.44, 17
38.45, 22
38.46, 14
38.47, 28
38.48, 32
38.49, 27
38.5, 26
38.51, 19
38.52, 27
38.53, 19
38.54, 31
38.55, 30
38.56, 29
38.57, 30
38.58, 20
38.59, 21
38.6, 30
38.61, 29
38.62, 31
38.63, 15
38.64, 25
38.65, 31
38.66, 26
38.67, 24
38.68, 27
38.69, 22
38.7, 28
38.71, 22
38.72, 38
38.73, 21
38.74, 30
38.75, 37
38.76, 21
38.77, 36
38.78, 45
38.79, 28
38.8, 32
38.81, 45
38.82, 47
38.83, 36
38.84, 37
38.85, 37
38.86, 32
38.87, 34
38.88, 31
38.89, 33
38.9, 31
38.91, 37
38.92, 34
38.93, 40
38.94, 23
38.95, 35
38.96, 31
38.97, 33
38.98, 26
38.99, 43
39, 48
39.01, 41
39.02, 35
39.03, 37
39.04, 32
39.05, 23
39.06, 37
39.07, 38
39.08, 36
39.09, 28
39.1, 43
39.11, 49
39.12, 37
39.13, 43
39.14, 58
39.15, 43
39.16, 49
39.17, 54
39.18, 55
39.19, 49
39.2, 49
39.21, 59
39.22, 62
39.23, 49
39.24, 68
39.25, 63
39.26, 87
39.27, 82
39.28, 72
39.29, 106
39.3, 109
39.31, 123
39.32, 113
39.33, 149
39.34, 200
39.35, 213
39.36, 250
39.37, 332
39.38, 452
39.39, 454
39.4, 482
39.41, 497
39.42, 508
39.43, 468
39.44, 449
39.45, 401
39.46, 386
39.47, 333
39.48, 323
39.49, 340
39.5, 323
39.51, 315
39.52, 323
39.53, 308
39.54, 250
39.55, 215
39.56, 185
39.57, 156
39.58, 125
39.59, 95
39.6, 98
39.61, 75
39.62, 91
39.63, 73
39.64, 67
39.65, 64
39.66, 54
39.67, 63
39.68, 73
39.69, 64
39.7, 65
39.71, 47
39.72, 61
39.73, 46
39.74, 56
39.75, 41
39.76, 51
39.77, 41
39.78, 37
39.79, 40
39.8, 51
39.81, 38
39.82, 33
39.83, 39
39.84, 38
39.85, 42
39.86, 39
39.87, 35
39.88, 35
39.89, 44
39.9, 25
39.91, 33
39.92, 33
39.93, 30
39.94, 31
39.95, 39
39.96, 39
39.97, 42
39.98, 29
39.99, 25
40, 37
40.01, 24
40.02, 25
40.03, 28
40.04, 32
40.05, 34
40.06, 22
40.07, 32
40.08, 31
40.09, 25
40.1, 23
40.11, 26
40.12, 28
40.13, 43
40.14, 25
40.15, 21
40.16, 25
40.17, 25
40.18, 34
40.19, 27
40.2, 25
40.21, 22
40.22, 34
40.23, 19
40.24, 19
40.25, 23
40.26, 29
40.27, 22
40.28, 32
40.29, 23
40.3, 23
40.31, 21
40.32, 28
40.33, 27
40.34, 25
40.35, 19
40.36, 21
40.37, 22
40.38, 17
40.39, 25
40.4, 28
40.41, 20
40.42, 19
40.43, 23
40.44, 19
40.45, 20
40.46, 27
40.47, 21
40.48, 31
40.49, 26
40.5, 27
40.51, 19
40.52, 13
40.53, 31
40.54, 14
40.55, 23
40.56, 22
40.57, 19
40.58, 23
40.59, 28
40.6, 29
40.61, 25
40.62, 23
40.63, 24
40.64, 26
40.65, 25
40.66, 28
40.67, 25
40.68, 28
40.69, 31
40.7, 18
40.71, 29
40.72, 29
40.73, 20
40.74, 33
40.75, 20
40.76, 22
40.77, 24
40.78, 18
40.79, 32
40.8, 29
40.81, 25
40.82, 19
40.83, 31
40.84, 32
40.85, 26
40.86, 15
40.87, 32
40.88, 14
40.89, 23
40.9, 24
40.91, 24
40.92, 20
40.93, 19
40.94, 20
40.95, 22
40.96, 27
40.97, 19
40.98, 25
40.99, 21
41, 26
41.01, 33
41.02, 29
41.03, 19
41.04, 21
41.05, 30
41.06, 46
41.07, 18
41.08, 19
41.09, 17
41.1, 20
41.11, 30
41.12, 17
41.13, 24
41.14, 25
41.15, 23
41.16, 27
41.17, 25
41.18, 15
41.19, 24
41.2, 26
41.21, 19
41.22, 17
41.23, 24
41.24, 22
41.25, 23
41.26, 20
41.27, 21
41.28, 21
41.29, 29
41.3, 19
41.31, 28
41.32, 20
41.33, 30
41.34, 29
41.35, 19
41.36, 26
41.37, 20
41.38, 20
41.39, 22
41.4, 31
41.41, 28
41.42, 25
41.43, 22
41.44, 26
41.45, 26
41.46, 25
41.47, 23
41.48, 19
41.49, 25
41.5, 30
41.51, 19
41.52, 17
41.53, 20
41.54, 33
41.55, 17
41.56, 22
41.57, 26
41.58, 28
41.59, 24
41.6, 22
41.61, 22
41.62, 24
41.63, 25
41.64, 27
41.65, 32
41.66, 23
41.67, 23
41.68, 25
41.69, 33
41.7, 21
41.71, 27
41.72, 30
41.73, 31
41.74, 20
41.75, 22
41.76, 20
41.77, 33
41.78, 20
41.79, 24
41.8, 23
41.81, 35
41.82, 19
41.83, 20
41.84, 27
41.85, 28
41.86, 24
41.87, 21
41.88, 20
41.89, 29
41.9, 37
41.91, 37
41.92, 29
41.93, 20
41.94, 24
41.95, 21
41.96, 27
41.97, 26
41.98, 30
41.99, 25
42, 24
42.01, 27
42.02, 29
42.03, 23
42.04, 21
42.05, 22
42.06, 21
42.07, 21
42.08, 23
42.09, 27
42.1, 24
42.11, 25
42.12, 16
42.13, 25
42.14, 22
42.15, 20
42.16, 22
42.17, 30
42.18, 30
42.19, 25
42.2, 23
42.21, 32
42.22, 20
42.23, 20
42.24, 16
42.25, 26
42.26, 23
42.27, 28
42.28, 24
42.29, 19
42.3, 23
42.31, 20
42.32, 27
42.33, 38
42.34, 28
42.35, 31
42.36, 28
42.37, 25
42.38, 28
42.39, 26
42.4, 26
42.41, 23
42.42, 36
42.43, 33
42.44, 34
42.45, 34
42.46, 24
42.47, 25
42.48, 27
42.49, 31
42.5, 25
42.51, 21
42.52, 26
42.53, 24
42.54, 33
42.55, 18
42.56, 40
42.57, 37
42.58, 27
42.59, 22
42.6, 33
42.61, 18
42.62, 38
42.63, 25
42.64, 41
42.65, 43
42.66, 20
42.67, 30
42.68, 34
42.69, 44
42.7, 36
42.71, 30
42.72, 41
42.73, 40
42.74, 48
42.75, 34
42.76, 41
42.77, 37
42.78, 34
42.79, 33
42.8, 29
42.81, 35
42.82, 35
42.83, 29
42.84, 36
42.85, 28
42.86, 40
42.87, 31
42.88, 39
42.89, 38
42.9, 43
42.91, 39
42.92, 58
42.93, 40
42.94, 47
42.95, 49
42.96, 46
42.97, 56
42.98, 44
42.99, 50
43, 61
43.01, 64
43.02, 54
43.03, 59
43.04, 84
43.05, 87
43.06, 99
43.07, 101
43.08, 133
43.09, 193
43.1, 206
43.11, 274
43.12, 349
43.13, 412
43.14, 436
43.15, 483
43.16, 430
43.17, 406
43.18, 445
43.19, 355
43.2, 335
43.21, 323
43.22, 306
43.23, 251
43.24, 309
43.25, 281
43.26, 316
43.27, 316
43.28, 291
43.29, 231
43.3, 197
43.31, 186
43.32, 162
43.33, 137
43.34, 122
43.35, 94
43.36, 82
43.37, 81
43.38, 74
43.39, 54
43.4, 49
43.41, 48
43.42, 67
43.43, 48
43.44, 53
43.45, 53
43.46, 39
43.47, 41
43.48, 55
43.49, 40
43.5, 46
43.51, 31
43.52, 55
43.53, 51
43.54, 53
43.55, 42
43.56, 44
43.57, 40
43.58, 52
43.59, 47
43.6, 44
43.61, 37
43.62, 39
43.63, 30
43.64, 31
43.65, 32
43.66, 32
43.67, 27
43.68, 46
43.69, 24
43.7, 34
43.71, 29
43.72, 30
43.73, 34
43.74, 19
43.75, 30
43.76, 36
43.77, 28
43.78, 22
43.79, 30
43.8, 22
43.81, 21
43.82, 32
43.83, 20
43.84, 17
43.85, 29
43.86, 26
43.87, 23
43.88, 27
43.89, 31
43.9, 21
43.91, 36
43.92, 21
43.93, 28
43.94, 23
43.95, 28
43.96, 24
43.97, 23
43.98, 24
43.99, 23
44, 27
44.01, 19
44.02, 17
44.03, 25
44.04, 30
44.05, 29
44.06, 29
44.07, 28
44.08, 30
44.09, 17
44.1, 32
44.11, 26
44.12, 29
44.13, 33
44.14, 23
44.15, 21
44.16, 25
44.17, 29
44.18, 31
44.19, 16
44.2, 21
44.21, 24
44.22, 17
44.23, 14
44.24, 28
44.25, 16
44.26, 24
44.27, 31
44.28, 25
44.29, 23
44.3, 27
44.31, 28
44.32, 21
44.33, 30
44.34, 20
44.35, 25
44.36, 25
44.37, 22
44.38, 35
44.39, 29
44.4, 22
44.41, 28
44.42, 20
44.43, 34
44.44, 25
44.45, 19
44.46, 24
44.47, 21
44.48, 22
44.49, 31
44.5, 22
44.51, 22
44.52, 16
44.53, 19
44.54, 28
44.55, 26
44.56, 26
44.57, 14
44.58, 25
44.59, 22
44.6, 25
44.61, 15
44.62, 22
44.63, 19
44.64, 29
44.65, 26
44.66, 20
44.67, 20
44.68, 31
44.69, 17
44.7, 20
44.71, 27
44.72, 28
44.73, 24
44.74, 23
44.75, 19
44.76, 23
44.77, 26
44.78, 26
44.79, 15
44.8, 19
44.81, 22
44.82, 24
44.83, 21
44.84, 25
44.85, 28
44.86, 19
44.87, 26
44.88, 31
44.89, 19
44.9, 14
44.91, 22
44.92, 19
44.93, 17
44.94, 24
44.95, 31
44.96, 33
44.97, 28
44.98, 19
44.99, 26
45, 30
45.01, 13
45.02, 22
45.03, 28
45.04, 24
45.05, 28
45.06, 18
45.07, 24
45.08, 19
45.09, 24
45.1, 24
45.11, 24
45.12, 29
45.13, 24
45.14, 14
45.15, 18
45.16, 29
45.17, 21
45.18, 24
45.19, 27
45.2, 30
45.21, 21
45.22, 19
45.23, 27
45.24, 19
45.25, 20
45.26, 19
45.27, 19
45.28, 20
45.29, 17
45.3, 17
45.31, 20
45.32, 24
45.33, 20
45.34, 20
45.35, 20
45.36, 17
45.37, 33
45.38, 22
45.39, 27
45.4, 24
45.41, 21
45.42, 18
45.43, 32
45.44, 25
45.45, 15
45.46, 30
45.47, 29
45.48, 24
45.49, 20
45.5, 31
45.51, 23
45.52, 18
45.53, 23
45.54, 25
45.55, 22
45.56, 26
45.57, 17
45.58, 23
45.59, 21
45.6, 18
45.61, 22
45.62, 27
45.63, 26
45.64, 19
45.65, 21
45.66, 21
45.67, 30
45.68, 14
45.69, 22
45.7, 23
45.71, 19
45.72, 20
45.73, 26
45.74, 21
45.75, 24
45.76, 18
45.77, 27
45.78, 22
45.79, 19
45.8, 25
45.81, 22
45.82, 20
45.83, 27
45.84, 17
45.85, 25
45.86, 25
45.87, 26
45.88, 26
45.89, 28
45.9, 26
45.91, 25
45.92, 18
45.93, 20
45.94, 15
45.95, 25
45.96, 24
45.97, 33
45.98, 29
45.99, 28
46, 25
46.01, 15
46.02, 32
46.03, 27
46.04, 38
46.05, 26
46.06, 26
46.07, 21
46.08, 26
46.09, 30
46.1, 32
46.11, 21
46.12, 27
46.13, 24
46.14, 20
46.15, 24
46.16, 31
46.17, 27
46.18, 24
46.19, 21
46.2, 24
46.21, 26
46.22, 22
46.23, 34
46.24, 26
46.25, 25
46.26, 31
46.27, 26
46.28, 26
46.29, 22
46.3, 25
46.31, 21
46.32, 44
46.33, 21
46.34, 33
46.35, 31
46.36, 23
46.37, 24
46.38, 26
46.39, 33
46.4, 31
46.41, 30
46.42, 26
46.43, 26
46.44, 33
46.45, 28
46.46, 37
46.47, 29
46.48, 22
46.49, 29
46.5, 26
46.51, 30
46.52, 24
46.53, 27
46.54, 26
46.55, 29
46.56, 20
46.57, 29
46.58, 32
46.59, 19
46.6, 34
46.61, 23
46.62, 33
46.63, 37
46.64, 30
46.65, 27
46.66, 31
46.67, 29
46.68, 34
46.69, 25
46.7, 26
46.71, 37
46.72, 44
46.73, 28
46.74, 38
46.75, 38
46.76, 40
46.77, 28
46.78, 37
46.79, 27
46.8, 31
46.81, 38
46.82, 33
46.83, 35
46.84, 34
46.85, 38
46.86, 28
46.87, 33
46.88, 43
46.89, 35
46.9, 40
46.91, 39
46.92, 51
46.93, 44
46.94, 38
46.95, 46
46.96, 48
46.97, 57
46.98, 38
46.99, 64
47, 68
47.01, 68
47.02, 77
47.03, 70
47.04, 80
47.05, 87
47.06, 110
47.07, 142
47.08, 159
47.09, 153
47.1, 179
47.11, 186
47.12, 164
47.13, 175
47.14, 146
47.15, 155
47.16, 137
47.17, 121
47.18, 146
47.19, 120
47.2, 119
47.21, 140
47.22, 131
47.23, 126
47.24, 127
47.25, 121
47.26, 125
47.27, 132
47.28, 139
47.29, 107
47.3, 103
47.31, 110
47.32, 99
47.33, 92
47.34, 94
47.35, 89
47.36, 98
47.37, 113
47.38, 124
47.39, 121
47.4, 128
47.41, 148
47.42, 157
47.43, 216
47.44, 226
47.45, 267
47.46, 350
47.47, 393
47.48, 498
47.49, 571
47.5, 588
47.51, 619
47.52, 626
47.53, 570
47.54, 588
47.55, 500
47.56, 425
47.57, 392
47.58, 388
47.59, 325
47.6, 320
47.61, 359
47.62, 320
47.63, 366
47.64, 349
47.65, 367
47.66, 373
47.67, 310
47.68, 263
47.69, 203
47.7, 172
47.71, 156
47.72, 113
47.73, 114
47.74, 107
47.75, 95
47.76, 96
47.77, 84
47.78, 81
47.79, 65
47.8, 68
47.81, 70
47.82, 75
47.83, 78
47.84, 72
47.85, 59
47.86, 71
47.87, 56
47.88, 49
47.89, 49
47.9, 56
47.91, 53
47.92, 52
47.93, 63
47.94, 60
47.95, 56
47.96, 36
47.97, 52
47.98, 47
47.99, 35
48, 47
48.01, 44
48.02, 43
48.03, 47
48.04, 47
48.05, 42
48.06, 39
48.07, 46
48.08, 35
48.09, 44
48.1, 49
48.11, 49
48.12, 49
48.13, 44
48.14, 48
48.15, 31
48.16, 49
48.17, 53
48.18, 48
48.19, 60
48.2, 43
48.21, 51
48.22, 70
48.23, 62
48.24, 55
48.25, 46
48.26, 51
48.27, 67
48.28, 67
48.29, 78
48.3, 70
48.31, 64
48.32, 75
48.33, 72
48.34, 89
48.35, 78
48.36, 84
48.37, 83
48.38, 75
48.39, 104
48.4, 110
48.41, 142
48.42, 145
48.43, 173
48.44, 243
48.45, 279
48.46, 357
48.47, 378
48.48, 447
48.49, 514
48.5, 557
48.51, 533
48.52, 551
48.53, 504
48.54, 468
48.55, 387
48.56, 370
48.57, 298
48.58, 295
48.59, 288
48.6, 302
48.61, 311
48.62, 331
48.63, 337
48.64, 319
48.65, 334
48.66, 269
48.67, 236
48.68, 258
48.69, 191
48.7, 137
48.71, 123
48.72, 103
48.73, 96
48.74, 90
48.75, 69
48.76, 84
48.77, 72
48.78, 78
48.79, 65
48.8, 78
48.81, 53
48.82, 69
48.83, 48
48.84, 55
48.85, 55
48.86, 51
48.87, 47
48.88, 52
48.89, 41
48.9, 36
48.91, 54
48.92, 33
48.93, 47
48.94, 46
48.95, 31
48.96, 40
48.97, 39
48.98, 42
48.99, 33
49, 37
49.01, 32
49.02, 37
49.03, 24
49.04, 48
49.05, 37
49.06, 34
49.07, 32
49.08, 24
49.09, 33
49.1, 32
49.11, 34
49.12, 31
49.13, 31
49.14, 24
49.15, 32
49.16, 29
49.17, 31
49.18, 31
49.19, 25
49.2, 28
49.21, 29
49.22, 29
49.23, 27
49.24, 30
49.25, 30
49.26, 32
49.27, 28
49.28, 34
49.29, 31
49.3, 17
49.31, 23
49.32, 27
49.33, 27
49.34, 33
49.35, 33
49.36, 28
49.37, 30
49.38, 20
49.39, 34
49.4, 26
49.41, 30
49.42, 14
49.43, 27
49.44, 22
49.45, 28
49.46, 19
49.47, 24
49.48, 40
49.49, 27
49.5, 30
49.51, 26
49.52, 24
49.53, 29
49.54, 30
49.55, 28
49.56, 22
49.57, 32
49.58, 17
49.59, 26
49.6, 20
49.61, 30
49.62, 21
49.63, 29
49.64, 25
49.65, 33
49.66, 22
49.67, 38
49.68, 25
49.69, 17
49.7, 22
49.71, 35
49.72, 20
49.73, 28
49.74, 18
49.75, 24
49.76, 23
49.77, 21
49.78, 28
49.79, 22
49.8, 22
49.81, 26
49.82, 33
49.83, 24
49.84, 28
49.85, 27
49.86, 23
49.87, 19
49.88, 19
49.89, 27
49.9, 20
49.91, 28
49.92, 21
49.93, 23
49.94, 19
49.95, 20
49.96, 16
49.97, 31
49.98, 20
49.99, 26
50, 27
50.01, 24
50.02, 19
50.03, 26
50.04, 20
50.05, 21
50.06, 24
50.07, 21
50.08, 17
50.09, 23
50.1, 24
50.11, 23
50.12, 20
50.13, 11
50.14, 20
50.15, 26
50.16, 21
50.17, 27
50.18, 24
50.19, 25
50.2, 23
50.21, 17
50.22, 28
50.23, 14
50.24, 19
50.25, 27
50.26, 22
50.27, 19
50.28, 19
50.29, 21
50.3, 17
50.31, 21
50.32, 26
50.33, 18
50.34, 25
50.35, 23
50.36, 23
50.37, 28
50.38, 20
50.39, 18
50.4, 18
50.41, 18
50.42, 19
50.43, 20
50.44, 21
50.45, 19
50.46, 27
50.47, 20
50.48, 22
50.49, 24
50.5, 20
50.51, 20
50.52, 24
50.53, 23
50.54, 27
50.55, 29
50.56, 15
50.57, 20
50.58, 21
50.59, 22
50.6, 21
50.61, 23
50.62, 19
50.63, 18
50.64, 22
50.65, 21
50.66, 27
50.67, 18
50.68, 27
50.69, 21
50.7, 23
50.71, 21
50.72, 24
50.73, 23
50.74, 26
50.75, 20
50.76, 23
50.77, 26
50.78, 25
50.79, 26
50.8, 13
50.81, 19
50.82, 19
50.83, 14
50.84, 19
50.85, 23
50.86, 24
50.87, 17
50.88, 10
50.89, 23
50.9, 34
50.91, 17
50.92, 22
50.93, 12
50.94, 15
50.95, 19
50.96, 26
50.97, 27
50.98, 28
50.99, 31
51, 20
51.01, 21
51.02, 29
51.03, 17
51.04, 23
51.05, 26
51.06, 21
51.07, 20
51.08, 13
51.09, 21
51.1, 21
51.11, 25
51.12, 26
51.13, 26
51.14, 23
51.15, 23
51.16, 22
51.17, 32
51.18, 21
51.19, 27
51.2, 21
51.21, 23
51.22, 18
51.23, 25
51.24, 16
51.25, 21
51.26, 25
51.27, 20
51.28, 25
51.29, 16
51.3, 23
51.31, 25
51.32, 24
51.33, 25
51.34, 26
51.35, 22
51.36, 16
51.37, 29
51.38, 22
51.39, 20
51.4, 20
51.41, 29
51.42, 32
51.43, 25
51.44, 17
51.45, 23
51.46, 20
51.47, 29
51.48, 24
51.49, 20
51.5, 27
51.51, 15
51.52, 25
51.53, 24
51.54, 17
51.55, 12
51.56, 16
51.57, 22
51.58, 15
51.59, 21
51.6, 26
51.61, 20
51.62, 23
51.63, 18
51.64, 13
51.65, 20
51.66, 14
51.67, 20
51.68, 16
51.69, 13
51.7, 16
51.71, 23
51.72, 19
51.73, 16
51.74, 21
51.75, 26
51.76, 27
51.77, 21
51.78, 24
51.79, 24
51.8, 17
51.81, 25
51.82, 19
51.83, 19
51.84, 22
51.85, 23
51.86, 16
51.87, 18
51.88, 12
51.89, 19
51.9, 29
51.91, 28
51.92, 20
51.93, 19
51.94, 28
51.95, 16
51.96, 20
51.97, 19
51.98, 25
51.99, 23
52, 29
52.01, 17
52.02, 19
52.03, 20
52.04, 21
52.05, 25
52.06, 18
52.07, 20
52.08, 25
52.09, 17
52.1, 18
52.11, 22
52.12, 16
52.13, 17
52.14, 21
52.15, 15
52.16, 18
52.17, 17
52.18, 17
52.19, 15
52.2, 13
52.21, 19
52.22, 14
52.23, 19
52.24, 32
52.25, 30
52.26, 20
52.27, 14
52.28, 16
52.29, 22
52.3, 19
52.31, 8
52.32, 21
52.33, 18
52.34, 18
52.35, 18
52.36, 14
52.37, 18
52.38, 30
52.39, 22
52.4, 16
52.41, 20
52.42, 18
52.43, 17
52.44, 21
52.45, 24
52.46, 20
52.47, 14
52.48, 16
52.49, 20
52.5, 22
52.51, 18
52.52, 10
52.53, 21
52.54, 21
52.55, 18
52.56, 24
52.57, 16
52.58, 11
52.59, 21
52.6, 10
52.61, 24
52.62, 24
52.63, 20
52.64, 21
52.65, 15
52.66, 18
52.67, 24
52.68, 26
52.69, 22
52.7, 11
52.71, 17
52.72, 23
52.73, 13
52.74, 23
52.75, 11
52.76, 17
52.77, 16
52.78, 16
52.79, 14
52.8, 15
52.81, 24
52.82, 15
52.83, 25
52.84, 15
52.85, 21
52.86, 13
52.87, 25
52.88, 22
52.89, 21
52.9, 18
52.91, 12
52.92, 24
52.93, 15
52.94, 14
52.95, 21
52.96, 25
52.97, 20
52.98, 24
52.99, 16
53, 17
53.01, 15
53.02, 13
53.03, 22
53.04, 18
53.05, 16
53.06, 26
53.07, 23
53.08, 14
53.09, 15
53.1, 15
53.11, 20
53.12, 15
53.13, 23
53.14, 24
53.15, 17
53.16, 20
53.17, 18
53.18, 16
53.19, 25
53.2, 35
53.21, 24
53.22, 16
53.23, 16
53.24, 25
53.25, 11
53.26, 20
53.27, 15
53.28, 32
53.29, 19
53.3, 13
53.31, 24
53.32, 16
53.33, 20
53.34, 20
53.35, 17
53.36, 27
53.37, 14
53.38, 21
53.39, 14
53.4, 30
53.41, 20
53.42, 22
53.43, 16
53.44, 14
53.45, 25
53.46, 25
53.47, 11
53.48, 22
53.49, 22
53.5, 19
53.51, 15
53.52, 25
53.53, 18
53.54, 18
53.55, 18
53.56, 19
53.57, 17
53.58, 22
53.59, 17
53.6, 19
53.61, 22
53.62, 23
53.63, 25
53.64, 17
53.65, 10
53.66, 15
53.67, 17
53.68, 18
53.69, 12
53.7, 21
53.71, 27
53.72, 16
53.73, 17
53.74, 16
53.75, 19
53.76, 22
53.77, 20
53.78, 27
53.79, 21
53.8, 25
53.81, 21
53.82, 22
53.83, 24
53.84, 16
53.85, 16
53.86, 19
53.87, 25
53.88, 12
53.89, 16
53.9, 17
53.91, 21
53.92, 23
53.93, 23
53.94, 21
53.95, 17
53.96, 13
53.97, 19
53.98, 29
53.99, 24
54, 25
54.01, 19
54.02, 23
54.03, 19
54.04, 28
54.05, 18
54.06, 21
54.07, 24
54.08, 20
54.09, 23
54.1, 16
54.11, 21
54.12, 22
54.13, 22
54.14, 20
54.15, 18
54.16, 22
54.17, 19
54.18, 22
54.19, 19
54.2, 24
54.21, 15
54.22, 20
54.23, 20
54.24, 21
54.25, 20
54.26, 24
54.27, 20
54.28, 25
54.29, 21
54.3, 25
54.31, 15
54.32, 23
54.33, 22
54.34, 20
54.35, 21
54.36, 23
54.37, 23
54.38, 20
54.39, 23
54.4, 23
54.41, 12
54.42, 18
54.43, 21
54.44, 24
54.45, 18
54.46, 11
54.47, 18
54.48, 26
54.49, 20
54.5, 27
54.51, 19
54.52, 17
54.53, 18
54.54, 17
54.55, 16
54.56, 25
54.57, 24
54.58, 15
54.59, 20
54.6, 20
54.61, 27
54.62, 22
54.63, 21
54.64, 26
54.65, 19
54.66, 22
54.67, 20
54.68, 18
54.69, 19
54.7, 20
54.71, 22
54.72, 19
54.73, 20
54.74, 15
54.75, 16
54.76, 16
54.77, 20
54.78, 14
54.79, 12
54.8, 19
54.81, 22
54.82, 18
54.83, 17
54.84, 23
54.85, 29
54.86, 10
54.87, 12
54.88, 14
54.89, 20
54.9, 19
54.91, 27
54.92, 29
54.93, 15
54.94, 18
54.95, 24
54.96, 13
54.97, 21
54.98, 18
54.99, 24
55, 15
55.01, 10
55.02, 14
55.03, 18
55.04, 30
55.05, 17
55.06, 23
55.07, 10
55.08, 13
55.09, 20
55.1, 24
55.11, 26
55.12, 18
55.13, 13
55.14, 22
55.15, 18
55.16, 23
55.17, 22
55.18, 18
55.19, 13
55.2, 25
55.21, 20
55.22, 26
55.23, 13
55.24, 7
55.25, 18
55.26, 26
55.27, 21
55.28, 20
55.29, 23
55.3, 17
55.31, 24
55.32, 8
55.33, 18
55.34, 20
55.35, 20
55.36, 15
55.37, 19
55.38, 18
55.39, 17
55.4, 13
55.41, 26
55.42, 13
55.43, 16
55.44, 22
55.45, 30
55.46, 18
55.47, 21
55.48, 19
55.49, 19
55.5, 23
55.51, 24
55.52, 27
55.53, 18
55.54, 19
55.55, 25
55.56, 20
55.57, 27
55.58, 16
55.59, 17
55.6, 16
55.61, 13
55.62, 27
55.63, 16
55.64, 17
55.65, 25
55.66, 18
55.67, 14
55.68, 26
55.69, 21
55.7, 22
55.71, 19
55.72, 21
55.73, 9
55.74, 28
55.75, 16
55.76, 18
55.77, 19
55.78, 17
55.79, 18
55.8, 27
55.81, 20
55.82, 23
55.83, 16
55.84, 17
55.85, 27
55.86, 23
55.87, 17
55.88, 27
55.89, 22
55.9, 17
55.91, 24
55.92, 19
55.93, 20
55.94, 21
55.95, 20
55.96, 14
55.97, 21
55.98, 25
55.99, 24
56, 19
56.01, 19
56.02, 22
56.03, 24
56.04, 12
56.05, 20
56.06, 16
56.07, 15
56.08, 23
56.09, 16
56.1, 19
56.11, 22
56.12, 18
56.13, 16
56.14, 26
56.15, 23
56.16, 23
56.17, 32
56.18, 22
56.19, 19
56.2, 29
56.21, 17
56.22, 27
56.23, 19
56.24, 12
56.25, 29
56.26, 25
56.27, 27
56.28, 22
56.29, 18
56.3, 15
56.31, 35
56.32, 22
56.33, 26
56.34, 34
56.35, 27
56.36, 32
56.37, 30
56.38, 30
56.39, 28
56.4, 35
56.41, 28
56.42, 20
56.43, 27
56.44, 29
56.45, 23
56.46, 31
56.47, 40
56.48, 63
56.49, 49
56.5, 53
56.51, 66
56.52, 71
56.53, 81
56.54, 93
56.55, 98
56.56, 99
56.57, 106
56.58, 90
56.59, 94
56.6, 74
56.61, 65
56.62, 66
56.63, 68
56.64, 40
56.65, 33
56.66, 58
56.67, 54
56.68, 59
56.69, 61
56.7, 59
56.71, 61
56.72, 66
56.73, 72
56.74, 76
56.75, 42
56.76, 51
56.77, 47
56.78, 38
56.79, 39
56.8, 45
56.81, 37
56.82, 33
56.83, 19
56.84, 31
56.85, 31
56.86, 27
56.87, 22
56.88, 33
56.89, 26
56.9, 29
56.91, 28
56.92, 27
56.93, 30
56.94, 33
56.95, 28
56.96, 25
56.97, 25
56.98, 21
56.99, 27
57, 18
57.01, 36
57.02, 42
57.03, 30
57.04, 31
57.05, 27
57.06, 31
57.07, 40
57.08, 29
57.09, 24
57.1, 28
57.11, 32
57.12, 31
57.13, 27
57.14, 36
57.15, 36
57.16, 33
57.17, 40
57.18, 36
57.19, 25
57.2, 32
57.21, 38
57.22, 34
57.23, 47
57.24, 39
57.25, 42
57.26, 52
57.27, 49
57.28, 62
57.29, 58
57.3, 55
57.31, 84
57.32, 89
57.33, 98
57.34, 113
57.35, 145
57.36, 167
57.37, 175
57.38, 200
57.39, 205
57.4, 229
57.41, 228
57.42, 197
57.43, 175
57.44, 155
57.45, 153
57.46, 139
57.47, 105
57.48, 91
57.49, 97
57.5, 105
57.51, 91
57.52, 102
57.53, 133
57.54, 138
57.55, 131
57.56, 128
57.57, 133
57.58, 127
57.59, 110
57.6, 113
57.61, 89
57.62, 89
57.63, 59
57.64, 62
57.65, 52
57.66, 44
57.67, 53
57.68, 44
57.69, 31
57.7, 34
57.71, 44
57.72, 28
57.73, 31
57.74, 38
57.75, 30
57.76, 35
57.77, 44
57.78, 25
57.79, 33
57.8, 25
57.81, 30
57.82, 32
57.83, 28
57.84, 25
57.85, 29
57.86, 26
57.87, 32
57.88, 40
57.89, 27
57.9, 31
57.91, 32
57.92, 32
57.93, 32
57.94, 37
57.95, 29
57.96, 28
57.97, 24
57.98, 30
57.99, 16
58, 37
58.01, 28
58.02, 38
58.03, 33
58.04, 43
58.05, 46
58.06, 57
58.07, 55
58.08, 38
58.09, 49
58.1, 44
58.11, 47
58.12, 50
58.13, 36
58.14, 37
58.15, 36
58.16, 27
58.17, 31
58.18, 32
58.19, 30
58.2, 30
58.21, 47
58.22, 27
58.23, 38
58.24, 45
58.25, 35
58.26, 44
58.27, 35
58.28, 37
58.29, 26
58.3, 26
58.31, 42
58.32, 24
58.33, 24
58.34, 27
58.35, 12
58.36, 22
58.37, 17
58.38, 25
58.39, 26
58.4, 20
58.41, 21
58.42, 23
58.43, 16
58.44, 21
58.45, 25
58.46, 20
58.47, 25
58.48, 16
58.49, 27
58.5, 24
58.51, 22
58.52, 13
58.53, 18
58.54, 19
58.55, 19
58.56, 22
58.57, 27
58.58, 23
58.59, 16
58.6, 25
58.61, 24
58.62, 14
58.63, 22
58.64, 19
58.65, 25
58.66, 22
58.67, 22
58.68, 19
58.69, 27
58.7, 15
58.71, 26
58.72, 19
58.73, 17
58.74, 18
58.75, 15
58.76, 22
58.77, 15
58.78, 24
58.79, 23
58.8, 12
58.81, 13
58.82, 24
58.83, 14
58.84, 28
58.85, 27
58.86, 17
58.87, 19
58.88, 16
58.89, 24
58.9, 13
58.91, 21
58.92, 19
58.93, 13
58.94, 17
58.95, 20
58.96, 12
58.97, 18
58.98, 20
58.99, 14
59, 22
59.01, 16
59.02, 18
59.03, 10
59.04, 13
59.05, 8
59.06, 16
59.07, 11
59.08, 20
59.09, 17
59.1, 22
59.11, 16
59.12, 18
59.13, 26
59.14, 21
59.15, 17
59.16, 18
59.17, 28
59.18, 18
59.19, 8
59.2, 15
59.21, 20
59.22, 25
59.23, 20
59.24, 22
59.25, 21
59.26, 17
59.27, 31
59.28, 23
59.29, 19
59.3, 28
59.31, 13
59.32, 19
59.33, 24
59.34, 20
59.35, 22
59.36, 18
59.37, 23
59.38, 19
59.39, 17
59.4, 20
59.41, 16
59.42, 23
59.43, 27
59.44, 11
59.45, 19
59.46, 17
59.47, 20
59.48, 22
59.49, 13
59.5, 20
59.51, 19
59.52, 21
59.53, 21
59.54, 14
59.55, 12
59.56, 22
59.57, 21
59.58, 15
59.59, 18
59.6, 18
59.61, 20
59.62, 17
59.63, 24
59.64, 12
59.65, 21
59.66, 19
59.67, 15
59.68, 18
59.69, 12
59.7, 23
59.71, 16
59.72, 14
59.73, 22
59.74, 13
59.75, 13
59.76, 18
59.77, 18
59.78, 18
59.79, 24
59.8, 23
59.81, 15
59.82, 15
59.83, 17
59.84, 17
59.85, 18
59.86, 29
59.87, 19
59.88, 17
59.89, 29
59.9, 12
59.91, 16
59.92, 18
59.93, 17
59.94, 18
59.95, 14
59.96, 17
59.97, 19
59.98, 18
59.99, 20
60, 17
60.01, 18
60.02, 17
60.03, 12
60.04, 14
60.05, 21
60.06, 14
60.07, 21
60.08, 24
60.09, 28
60.1, 19
60.11, 19
60.12, 17
60.13, 20
60.14, 29
60.15, 18
60.16, 12
60.17, 18
60.18, 23
60.19, 19
60.2, 18
60.21, 19
60.22, 20
60.23, 18
60.24, 21
60.25, 23
60.26, 24
60.27, 24
60.28, 29
60.29, 21
60.3, 18
60.31, 19
60.32, 25
60.33, 24
60.34, 22
60.35, 17
60.36, 27
60.37, 29
60.38, 27
60.39, 30
60.4, 21
60.41, 26
60.42, 25
60.43, 25
60.44, 34
60.45, 27
60.46, 29
60.47, 35
60.48, 37
60.49, 30
60.5, 33
60.51, 27
60.52, 27
60.53, 40
60.54, 33
60.55, 24
60.56, 35
60.57, 34
60.58, 46
60.59, 54
60.6, 64
60.61, 71
60.62, 94
60.63, 120
60.64, 134
60.65, 138
60.66, 162
60.67, 183
60.68, 171
60.69, 140
60.7, 140
60.71, 124
60.72, 107
60.73, 89
60.74, 85
60.75, 92
60.76, 56
60.77, 73
60.78, 64
60.79, 85
60.8, 78
60.81, 81
60.82, 97
60.83, 101
60.84, 116
60.85, 99
60.86, 113
60.87, 109
60.88, 94
60.89, 73
60.9, 70
60.91, 59
60.92, 61
60.93, 71
60.94, 58
60.95, 59
60.96, 86
60.97, 98
60.98, 113
60.99, 107
61, 101
61.01, 98
61.02, 108
61.03, 78
61.04, 91
61.05, 80
61.06, 75
61.07, 52
61.08, 62
61.09, 43
61.1, 53
61.11, 57
61.12, 55
61.13, 63
61.14, 49
61.15, 66
61.16, 72
61.17, 70
61.18, 61
61.19, 61
61.2, 68
61.21, 84
61.22, 58
61.23, 44
61.24, 56
61.25, 45
61.26, 38
61.27, 39
61.28, 38
61.29, 52
61.3, 41
61.31, 50
61.32, 54
61.33, 59
61.34, 72
61.35, 77
61.36, 82
61.37, 98
61.38, 103
61.39, 97
61.4, 78
61.41, 75
61.42, 67
61.43, 51
61.44, 59
61.45, 35
61.46, 47
61.47, 60
61.48, 53
61.49, 47
61.5, 40
61.51, 57
61.52, 46
61.53, 48
61.54, 62
61.55, 59
61.56, 50
61.57, 64
61.58, 44
61.59, 69
61.6, 35
61.61, 45
61.62, 41
61.63, 31
61.64, 27
61.65, 25
61.66, 27
61.67, 23
61.68, 17
61.69, 22
61.7, 34
61.71, 28
61.72, 16
61.73, 26
61.74, 20
61.75, 26
61.76, 17
61.77, 29
61.78, 20
61.79, 23
61.8, 21
61.81, 29
61.82, 9
61.83, 22
61.84, 18
61.85, 14
61.86, 17
61.87, 16
61.88, 28
61.89, 23
61.9, 22
61.91, 18
61.92, 14
61.93, 23
61.94, 21
61.95, 12
61.96, 23
61.97, 23
61.98, 19
61.99, 22
62, 19
62.01, 22
62.02, 17
62.03, 14
62.04, 21
62.05, 12
62.06, 27
62.07, 31
62.08, 21
62.09, 24
62.1, 23
62.11, 23
62.12, 17
62.13, 22
62.14, 13
62.15, 12
62.16, 25
62.17, 17
62.18, 18
62.19, 15
62.2, 19
62.21, 14
62.22, 15
62.23, 13
62.24, 19
62.25, 18
62.26, 21
62.27, 17
62.28, 18
62.29, 17
62.3, 13
62.31, 18
62.32, 15
62.33, 10
62.34, 22
62.35, 18
62.36, 14
62.37, 16
62.38, 18
62.39, 19
62.4, 13
62.41, 19
62.42, 21
62.43, 16
62.44, 12
62.45, 15
62.46, 17
62.47, 13
62.48, 16
62.49, 17
62.5, 21
62.51, 23
62.52, 23
62.53, 28
62.54, 17
62.55, 14
62.56, 17
62.57, 11
62.58, 22
62.59, 24
62.6, 16
62.61, 23
62.62, 19
62.63, 22
62.64, 25
62.65, 17
62.66, 24
62.67, 16
62.68, 25
62.69, 16
62.7, 22
62.71, 20
62.72, 19
62.73, 17
62.74, 12
62.75, 18
62.76, 16
62.77, 19
62.78, 27
62.79, 16
62.8, 26
62.81, 20
62.82, 16
62.83, 29
62.84, 17
62.85, 17
62.86, 20
62.87, 13
62.88, 18
62.89, 20
62.9, 23
62.91, 18
62.92, 25
62.93, 30
62.94, 20
62.95, 28
62.96, 19
62.97, 35
62.98, 30
62.99, 37
63, 43
63.01, 50
63.02, 55
63.03, 47
63.04, 63
63.05, 65
63.06, 64
63.07, 64
63.08, 48
63.09, 67
63.1, 45
63.11, 35
63.12, 37
63.13, 39
63.14, 42
63.15, 42
63.16, 41
63.17, 34
63.18, 38
63.19, 36
63.2, 39
63.21, 35
63.22, 39
63.23, 42
63.24, 48
63.25, 32
63.26, 34
63.27, 38
63.28, 37
63.29, 31
63.3, 32
63.31, 26
63.32, 22
63.33, 24
63.34, 22
63.35, 19
63.36, 20
63.37, 22
63.38, 30
63.39, 14
63.4, 17
63.41, 24
63.42, 17
63.43, 19
63.44, 21
63.45, 23
63.46, 13
63.47, 21
63.48, 21
63.49, 21
63.5, 24
63.51, 21
63.52, 19
63.53, 17
63.54, 23
63.55, 19
63.56, 20
63.57, 19
63.58, 17
63.59, 18
63.6, 20
63.61, 23
63.62, 29
63.63, 14
63.64, 23
63.65, 17
63.66, 15
63.67, 21
63.68, 15
63.69, 19
63.7, 12
63.71, 15
63.72, 24
63.73, 18
63.74, 20
63.75, 19
63.76, 21
63.77, 21
63.78, 20
63.79, 23
63.8, 21
63.81, 19
63.82, 13
63.83, 24
63.84, 24
63.85, 17
63.86, 14
63.87, 23
63.88, 26
63.89, 21
63.9, 25
63.91, 22
63.92, 24
63.93, 16
63.94, 17
63.95, 21
63.96, 22
63.97, 15
63.98, 20
63.99, 14
64, 19
64.01, 13
64.02, 15
64.03, 24
64.04, 18
64.05, 21
64.06, 15
64.07, 21
64.08, 26
64.09, 24
64.1, 25
64.11, 17
64.12, 17
64.13, 25
64.14, 16
64.15, 24
64.16, 17
64.17, 20
64.18, 17
64.19, 19
64.2, 26
64.21, 17
64.22, 21
64.23, 18
64.24, 26
64.25, 18
64.26, 17
64.27, 19
64.28, 20
64.29, 26
64.3, 15
64.31, 26
64.32, 16
64.33, 16
64.34, 24
64.35, 33
64.36, 20
64.37, 25
64.38, 22
64.39, 20
64.4, 26
64.41, 21
64.42, 25
64.43, 23
64.44, 25
64.45, 22
64.46, 36
64.47, 23
64.48, 32
64.49, 36
64.5, 40
64.51, 36
64.52, 36
64.53, 42
64.54, 29
64.55, 32
64.56, 55
64.57, 48
64.58, 55
64.59, 66
64.6, 71
64.61, 87
64.62, 119
64.63, 124
64.64, 141
64.65, 136
64.66, 153
64.67, 178
64.68, 154
64.69, 153
64.7, 103
64.71, 101
64.72, 74
64.73, 72
64.74, 58
64.75, 69
64.76, 62
64.77, 54
64.78, 69
64.79, 56
64.8, 76
64.81, 77
64.82, 84
64.83, 105
64.84, 94
64.85, 85
64.86, 94
64.87, 86
64.88, 75
64.89, 73
64.9, 58
64.91, 49
64.92, 45
64.93, 47
64.94, 32
64.95, 40
64.96, 37
64.97, 32
64.98, 35
64.99, 27
65, 37
65.01, 26
65.02, 25
65.03, 25
65.04, 26
65.05, 38
65.06, 26
65.07, 33
65.08, 22
65.09, 26
65.1, 26
65.11, 25
65.12, 26
65.13, 25
65.14, 26
65.15, 14
65.16, 27
65.17, 21
65.18, 11
65.19, 33
65.2, 29
65.21, 23
65.22, 31
65.23, 30
65.24, 23
65.25, 18
65.26, 23
65.27, 26
65.28, 22
65.29, 14
65.3, 24
65.31, 28
65.32, 25
65.33, 26
65.34, 20
65.35, 21
65.36, 32
65.37, 22
65.38, 17
65.39, 18
65.4, 20
65.41, 27
65.42, 31
65.43, 28
65.44, 16
65.45, 26
65.46, 28
65.47, 30
65.48, 38
65.49, 39
65.5, 32
65.51, 32
65.52, 37
65.53, 35
65.54, 42
65.55, 59
65.56, 57
65.57, 60
65.58, 82
65.59, 88
65.6, 117
65.61, 112
65.62, 119
65.63, 123
65.64, 119
65.65, 95
65.66, 99
65.67, 84
65.68, 78
65.69, 59
65.7, 65
65.71, 51
65.72, 56
65.73, 49
65.74, 46
65.75, 60
65.76, 41
65.77, 66
65.78, 72
65.79, 75
65.8, 75
65.81, 65
65.82, 56
65.83, 64
65.84, 67
65.85, 63
65.86, 51
65.87, 45
65.88, 41
65.89, 36
65.9, 32
65.91, 36
65.92, 25
65.93, 17
65.94, 21
65.95, 23
65.96, 37
65.97, 30
65.98, 28
65.99, 21
66, 27
66.01, 22
66.02, 17
66.03, 24
66.04, 23
66.05, 20
66.06, 15
66.07, 20
66.08, 24
66.09, 21
66.1, 23
66.11, 25
66.12, 24
66.13, 24
66.14, 23
66.15, 25
66.16, 18
66.17, 15
66.18, 23
66.19, 24
66.2, 20
66.21, 13
66.22, 14
66.23, 15
66.24, 13
66.25, 24
66.26, 10
66.27, 25
66.28, 22
66.29, 10
66.3, 15
66.31, 17
66.32, 14
66.33, 21
66.34, 17
66.35, 18
66.36, 13
66.37, 15
66.38, 18
66.39, 11
66.4, 18
66.41, 23
66.42, 18
66.43, 17
66.44, 9
66.45, 18
66.46, 20
66.47, 19
66.48, 19
66.49, 20
66.5, 20
66.51, 23
66.52, 14
66.53, 17
66.54, 22
66.55, 15
66.56, 15
66.57, 24
66.58, 17
66.59, 14
66.6, 19
66.61, 28
66.62, 21
66.63, 19
66.64, 17
66.65, 13
66.66, 14
66.67, 16
66.68, 16
66.69, 13
66.7, 18
66.71, 18
66.72, 17
66.73, 22
66.74, 13
66.75, 15
66.76, 15
66.77, 20
66.78, 15
66.79, 12
66.8, 17
66.81, 12
66.82, 15
66.83, 18
66.84, 13
66.85, 17
66.86, 17
66.87, 13
66.88, 22
66.89, 17
66.9, 14
66.91, 16
66.92, 17
66.93, 19
66.94, 18
66.95, 14
66.96, 25
66.97, 12
66.98, 25
66.99, 14
67, 13
67.01, 13
67.02, 14
67.03, 18
67.04, 32
67.05, 16
67.06, 13
67.07, 10
67.08, 13
67.09, 12
67.1, 18
67.11, 20
67.12, 15
67.13, 16
67.14, 19
67.15, 14
67.16, 21
67.17, 16
67.18, 15
67.19, 17
67.2, 17
67.21, 14
67.22, 19
67.23, 27
67.24, 15
67.25, 13
67.26, 16
67.27, 17
67.28, 21
67.29, 17
67.3, 18
67.31, 11
67.32, 16
67.33, 17
67.34, 15
67.35, 17
67.36, 15
67.37, 12
67.38, 19
67.39, 17
67.4, 12
67.41, 13
67.42, 13
67.43, 14
67.44, 17
67.45, 16
67.46, 13
67.47, 8
67.48, 13
67.49, 15
67.5, 13
67.51, 17
67.52, 18
67.53, 21
67.54, 11
67.55, 22
67.56, 21
67.57, 16
67.58, 18
67.59, 16
67.6, 17
67.61, 12
67.62, 11
67.63, 13
67.64, 15
67.65, 14
67.66, 18
67.67, 15
67.68, 13
67.69, 18
67.7, 22
67.71, 12
67.72, 14
67.73, 14
67.74, 23
67.75, 18
67.76, 17
67.77, 21
67.78, 18
67.79, 10
67.8, 13
67.81, 19
67.82, 23
67.83, 11
67.84, 28
67.85, 17
67.86, 12
67.87, 14
67.88, 19
67.89, 14
67.9, 20
67.91, 16
67.92, 16
67.93, 17
67.94, 11
67.95, 24
67.96, 14
67.97, 15
67.98, 19
67.99, 12
68, 13
68.01, 11
68.02, 19
68.03, 14
68.04, 19
68.05, 6
68.06, 16
68.07, 8
68.08, 16
68.09, 20
68.1, 12
68.11, 13
68.12, 14
68.13, 20
68.14, 20
68.15, 14
68.16, 19
68.17, 12
68.18, 18
68.19, 17
68.2, 15
68.21, 16
68.22, 19
68.23, 15
68.24, 13
68.25, 17
68.26, 14
68.27, 12
68.28, 22
68.29, 21
68.3, 17
68.31, 21
68.32, 17
68.33, 15
68.34, 23
68.35, 19
68.36, 18
68.37, 12
68.38, 12
68.39, 20
68.4, 13
68.41, 20
68.42, 15
68.43, 12
68.44, 14
68.45, 14
68.46, 15
68.47, 17
68.48, 15
68.49, 15
68.5, 26
68.51, 20
68.52, 21
68.53, 10
68.54, 16
68.55, 18
68.56, 18
68.57, 16
68.58, 21
68.59, 18
68.6, 18
68.61, 19
68.62, 13
68.63, 9
68.64, 22
68.65, 23
68.66, 12
68.67, 10
68.68, 22
68.69, 16
68.7, 17
68.71, 18
68.72, 23
68.73, 11
68.74, 11
68.75, 15
68.76, 15
68.77, 18
68.78, 21
68.79, 19
68.8, 17
68.81, 14
68.82, 26
68.83, 8
68.84, 18
68.85, 22
68.86, 13
68.87, 12
68.88, 12
68.89, 12
68.9, 18
68.91, 12
68.92, 16
68.93, 14
68.94, 16
68.95, 16
68.96, 20
68.97, 19
68.98, 12
68.99, 23
69, 26
69.01, 19
69.02, 13
69.03, 14
69.04, 23
69.05, 18
69.06, 30
69.07, 23
69.08, 20
69.09, 20
69.1, 21
69.11, 23
69.12, 26
69.13, 25
69.14, 29
69.15, 38
69.16, 45
69.17, 45
69.18, 47
69.19, 50
69.2, 50
69.21, 36
69.22, 43
69.23, 32
69.24, 34
69.25, 32
69.26, 36
69.27, 27
69.28, 28
69.29, 25
69.3, 25
69.31, 19
69.32, 22
69.33, 28
69.34, 23
69.35, 30
69.36, 24
69.37, 31
69.38, 35
69.39, 30
69.4, 32
69.41, 30
69.42, 31
69.43, 41
69.44, 24
69.45, 33
69.46, 28
69.47, 14
69.48, 23
69.49, 24
69.5, 24
69.51, 23
69.52, 27
69.53, 21
69.54, 20
69.55, 17
69.56, 11
69.57, 16
69.58, 15
69.59, 17
69.6, 24
69.61, 15
69.62, 14
69.63, 21
69.64, 18
69.65, 17
69.66, 15
69.67, 19
69.68, 28
69.69, 17
69.7, 14
69.71, 17
69.72, 15
69.73, 11
69.74, 23
69.75, 21
69.76, 23
69.77, 11
69.78, 18
69.79, 16
69.8, 15
69.81, 13
69.82, 18
69.83, 25
69.84, 18
69.85, 24
69.86, 18
69.87, 22
69.88, 24
69.89, 13
69.9, 16
69.91, 13
69.92, 13
69.93, 19
69.94, 17
69.95, 22
69.96, 18
69.97, 14
69.98, 22
69.99, 12
70, 12
70.01, 15
70.02, 20
70.03, 18
70.04, 18
70.05, 13
70.06, 14
70.07, 25
70.08, 21
70.09, 29
70.1, 27
70.11, 36
70.12, 23
70.13, 29
70.14, 22
70.15, 32
70.16, 22
70.17, 39
70.18, 31
70.19, 34
70.2, 42
70.21, 55
70.22, 65
70.23, 52
70.24, 62
70.25, 58
70.26, 75
70.27, 51
70.28, 70
70.29, 48
70.3, 38
70.31, 47
70.32, 36
70.33, 26
70.34, 32
70.35, 38
70.36, 28
70.37, 30
70.38, 35
70.39, 35
70.4, 29
70.41, 29
70.42, 35
70.43, 37
70.44, 44
70.45, 48
70.46, 38
70.47, 48
70.48, 42
70.49, 29
70.5, 31
70.51, 29
70.52, 34
70.53, 24
70.54, 23
70.55, 23
70.56, 12
70.57, 29
70.58, 17
70.59, 20
70.6, 17
70.61, 16
70.62, 25
70.63, 19
70.64, 22
70.65, 19
70.66, 16
70.67, 19
70.68, 15
70.69, 24
70.7, 15
70.71, 12
70.72, 19
70.73, 22
70.74, 18
70.75, 22
70.76, 15
70.77, 16
70.78, 20
70.79, 9
70.8, 24
70.81, 16
70.82, 26
70.83, 18
70.84, 15
70.85, 17
70.86, 16
70.87, 20
70.88, 20
70.89, 23
70.9, 10
70.91, 13
70.92, 17
70.93, 25
70.94, 11
70.95, 13
70.96, 19
70.97, 19
70.98, 13
70.99, 10
71, 15
71.01, 24
71.02, 11
71.03, 16
71.04, 16
71.05, 15
71.06, 16
71.07, 20
71.08, 17
71.09, 18
71.1, 19
71.11, 13
71.12, 11
71.13, 12
71.14, 17
71.15, 12
71.16, 18
71.17, 14
71.18, 14
71.19, 17
71.2, 12
71.21, 28
71.22, 18
71.23, 16
71.24, 13
71.25, 20
71.26, 20
71.27, 15
71.28, 21
71.29, 12
71.3, 13
71.31, 24
71.32, 17
71.33, 24
71.34, 12
71.35, 15
71.36, 16
71.37, 17
71.38, 13
71.39, 16
71.4, 19
71.41, 22
71.42, 19
71.43, 23
71.44, 16
71.45, 13
71.46, 18
71.47, 14
71.48, 18
71.49, 25
71.5, 10
71.51, 18
71.52, 26
71.53, 19
71.54, 11
71.55, 23
71.56, 13
71.57, 23
71.58, 16
71.59, 10
71.6, 12
71.61, 14
71.62, 14
71.63, 12
71.64, 18
71.65, 18
71.66, 18
71.67, 10
71.68, 20
71.69, 21
71.7, 17
71.71, 15
71.72, 19
71.73, 20
71.74, 27
71.75, 14
71.76, 10
71.77, 17
71.78, 16
71.79, 16
71.8, 19
71.81, 13
71.82, 15
71.83, 12
71.84, 13
71.85, 20
71.86, 15
71.87, 13
71.88, 16
71.89, 18
71.9, 19
71.91, 18
71.92, 22
71.93, 20
71.94, 12
71.95, 11
71.96, 10
71.97, 21
71.98, 20
71.99, 11
72, 12
72.01, 20
72.02, 14
72.03, 15
72.04, 16
72.05, 11
72.06, 17
72.07, 16
72.08, 11
72.09, 16
72.1, 13
72.11, 21
72.12, 10
72.13, 20
72.14, 16
72.15, 13
72.16, 14
72.17, 25
72.18, 14
72.19, 22
72.2, 13
72.21, 16
72.22, 11
72.23, 14
72.24, 19
72.25, 17
72.26, 7
72.27, 23
72.28, 18
72.29, 16
72.3, 14
72.31, 13
72.32, 18
72.33, 20
72.34, 29
72.35, 13
72.36, 19
72.37, 19
72.38, 24
72.39, 22
72.4, 21
72.41, 17
72.42, 17
72.43, 23
72.44, 13
72.45, 14
72.46, 19
72.47, 13
72.48, 24
72.49, 23
72.5, 17
72.51, 21
72.52, 14
72.53, 18
72.54, 24
72.55, 26
72.56, 17
72.57, 19
72.58, 21
72.59, 23
72.6, 23
72.61, 12
72.62, 22
72.63, 27
72.64, 19
72.65, 16
72.66, 20
72.67, 19
72.68, 21
72.69, 22
72.7, 26
72.71, 17
72.72, 23
72.73, 27
72.74, 22
72.75, 25
72.76, 29
72.77, 26
72.78, 18
72.79, 31
72.8, 35
72.81, 29
72.82, 36
72.83, 49
72.84, 45
72.85, 54
72.86, 56
72.87, 73
72.88, 91
72.89, 68
72.9, 80
72.91, 84
72.92, 68
72.93, 72
72.94, 55
72.95, 61
72.96, 55
72.97, 48
72.98, 40
72.99, 37
73, 32
73.01, 31
73.02, 33
73.03, 37
73.04, 34
73.05, 42
73.06, 37
73.07, 50
73.08, 46
73.09, 51
73.1, 47
73.11, 49
73.12, 61
73.13, 44
73.14, 53
73.15, 42
73.16, 43
73.17, 41
73.18, 28
73.19, 32
73.2, 29
73.21, 23
73.22, 31
73.23, 29
73.24, 21
73.25, 18
73.26, 25
73.27, 29
73.28, 23
73.29, 20
73.3, 22
73.31, 13
73.32, 22
73.33, 19
73.34, 16
73.35, 13
73.36, 15
73.37, 22
73.38, 15
73.39, 16
73.4, 27
73.41, 13
73.42, 34
73.43, 13
73.44, 22
73.45, 17
73.46, 21
73.47, 19
73.48, 22
73.49, 24
73.5, 16
73.51, 23
73.52, 20
73.53, 20
73.54, 19
73.55, 8
73.56, 28
73.57, 20
73.58, 17
73.59, 12
73.6, 19
73.61, 23
73.62, 22
73.63, 31
73.64, 32
73.65, 25
73.66, 30
73.67, 26
73.68, 22
73.69, 16
73.7, 27
73.71, 30
73.72, 24
73.73, 23
73.74, 17
73.75, 27
73.76, 26
73.77, 22
73.78, 19
73.79, 18
73.8, 17
73.81, 24
73.82, 20
73.83, 25
73.84, 15
73.85, 25
73.86, 23
73.87, 18
73.88, 15
73.89, 20
73.9, 28
73.91, 21
73.92, 29
73.93, 16
73.94, 20
73.95, 20
73.96, 19
73.97, 13
73.98, 14
73.99, 14
74, 22
74.01, 16
74.02, 19
74.03, 28
74.04, 22
74.05, 20
74.06, 23
74.07, 20
74.08, 17
74.09, 13
74.1, 13
74.11, 14
74.12, 11
74.13, 20
74.14, 20
74.15, 10
74.16, 15
74.17, 14
74.18, 19
74.19, 17
74.2, 19
74.21, 23
74.22, 12
74.23, 14
74.24, 17
74.25, 18
74.26, 20
74.27, 21
74.28, 18
74.29, 17
74.3, 15
74.31, 18
74.32, 11
74.33, 12
74.34, 15
74.35, 16
74.36, 21
74.37, 15
74.38, 23
74.39, 15
74.4, 18
74.41, 15
74.42, 13
74.43, 17
74.44, 21
74.45, 8
74.46, 9
74.47, 8
74.48, 21
74.49, 10
74.5, 19
74.51, 12
74.52, 11
74.53, 14
74.54, 17
74.55, 22
74.56, 10
74.57, 21
74.58, 16
74.59, 16
74.6, 17
74.61, 10
74.62, 11
74.63, 17
74.64, 15
74.65, 16
74.66, 20
74.67, 13
74.68, 11
74.69, 19
74.7, 20
74.71, 20
74.72, 15
74.73, 11
74.74, 18
74.75, 10
74.76, 16
74.77, 13
74.78, 19
74.79, 4
74.8, 17
74.81, 11
74.82, 28
74.83, 14
74.84, 15
74.85, 13
74.86, 12
74.87, 11
74.88, 15
74.89, 14
74.9, 15
74.91, 13
74.92, 14
74.93, 16
74.94, 14
74.95, 13
74.96, 22
74.97, 18
74.98, 14
74.99, 19
75, 18
75.01, 18
75.02, 16
75.03, 16
75.04, 20
75.05, 20
75.06, 14
75.07, 18
75.08, 18
75.09, 12
75.1, 19
75.11, 11
75.12, 17
75.13, 18
75.14, 19
75.15, 10
75.16, 24
75.17, 19
75.18, 19
75.19, 18
75.2, 14
75.21, 12
75.22, 15
75.23, 18
75.24, 8
75.25, 19
75.26, 14
75.27, 15
75.28, 18
75.29, 10
75.3, 12
75.31, 22
75.32, 18
75.33, 16
75.34, 18
75.35, 17
75.36, 21
75.37, 20
75.38, 20
75.39, 16
75.4, 16
75.41, 13
75.42, 17
75.43, 22
75.44, 18
75.45, 14
75.46, 20
75.47, 15
75.48, 15
75.49, 4
75.5, 15
75.51, 10
75.52, 19
75.53, 15
75.54, 16
75.55, 14
75.56, 15
75.57, 7
75.58, 8
75.59, 15
75.6, 26
75.61, 12
75.62, 15
75.63, 14
75.64, 8
75.65, 19
75.66, 12
75.67, 11
75.68, 14
75.69, 16
75.7, 18
75.71, 17
75.72, 20
75.73, 14
75.74, 14
75.75, 16
75.76, 14
75.77, 17
75.78, 17
75.79, 17
75.8, 16
75.81, 24
75.82, 8
75.83, 19
75.84, 16
75.85, 20
75.86, 22
75.87, 15
75.88, 10
75.89, 13
75.9, 19
75.91, 14
75.92, 11
75.93, 19
75.94, 19
75.95, 15
75.96, 24
75.97, 20
75.98, 15
75.99, 15
76, 25
76.01, 25
76.02, 15
76.03, 22
76.04, 20
76.05, 16
76.06, 17
76.07, 15
76.08, 21
76.09, 14
76.1, 18
76.11, 21
76.12, 17
76.13, 14
76.14, 25
76.15, 19
76.16, 17
76.17, 26
76.18, 24
76.19, 22
76.2, 28
76.21, 22
76.22, 24
76.23, 37
76.24, 37
76.25, 42
76.26, 25
76.27, 42
76.28, 43
76.29, 34
76.3, 33
76.31, 53
76.32, 36
76.33, 33
76.34, 31
76.35, 34
76.36, 30
76.37, 25
76.38, 24
76.39, 26
76.4, 16
76.41, 19
76.42, 28
76.43, 23
76.44, 29
76.45, 30
76.46, 29
76.47, 29
76.48, 32
76.49, 29
76.5, 38
76.51, 26
76.52, 29
76.53, 23
76.54, 32
76.55, 21
76.56, 15
76.57, 24
76.58, 15
76.59, 20
76.6, 27
76.61, 16
76.62, 11
76.63, 15
76.64, 11
76.65, 22
76.66, 17
76.67, 25
76.68, 18
76.69, 15
76.7, 17
76.71, 19
76.72, 22
76.73, 18
76.74, 21
76.75, 24
76.76, 18
76.77, 26
76.78, 22
76.79, 19
76.8, 21
76.81, 19
76.82, 21
76.83, 20
76.84, 12
76.85, 17
76.86, 19
76.87, 17
76.88, 22
76.89, 19
76.9, 23
76.91, 22
76.92, 18
76.93, 14
76.94, 20
76.95, 18
76.96, 26
76.97, 23
76.98, 21
76.99, 15
77, 24
77.01, 22
77.02, 36
77.03, 21
77.04, 27
77.05, 27
77.06, 32
77.07, 25
77.08, 26
77.09, 37
77.1, 39
77.11, 51
77.12, 44
77.13, 52
77.14, 72
77.15, 73
77.16, 78
77.17, 92
77.18, 68
77.19, 64
77.2, 65
77.21, 58
77.22, 46
77.23, 46
77.24, 49
77.25, 36
77.26, 27
77.27, 35
77.28, 26
77.29, 34
77.3, 38
77.31, 37
77.32, 25
77.33, 33
77.34, 37
77.35, 50
77.36, 39
77.37, 47
77.38, 60
77.39, 45
77.4, 45
77.41, 34
77.42, 57
77.43, 45
77.44, 37
77.45, 29
77.46, 36
77.47, 27
77.48, 23
77.49, 32
77.5, 16
77.51, 37
77.52, 32
77.53, 21
77.54, 25
77.55, 21
77.56, 18
77.57, 22
77.58, 23
77.59, 15
77.6, 20
77.61, 18
77.62, 23
77.63, 15
77.64, 17
77.65, 15
77.66, 18
77.67, 13
77.68, 18
77.69, 14
77.7, 19
77.71, 23
77.72, 14
77.73, 18
77.74, 12
77.75, 23
77.76, 17
77.77, 14
77.78, 20
77.79, 12
77.8, 17
77.81, 21
77.82, 17
77.83, 26
77.84, 11
77.85, 15
77.86, 14
77.87, 14
77.88, 11
77.89, 15
77.9, 11
77.91, 14
77.92, 16
77.93, 16
77.94, 11
77.95, 15
77.96, 14
77.97, 22
77.98, 15
77.99, 13
78, 12
78.01, 18
78.02, 13
78.03, 18
78.04, 24
78.05, 20
78.06, 14
78.07, 18
78.08, 13
78.09, 13
78.1, 13
78.11, 14
78.12, 16
78.13, 7
78.14, 14
78.15, 17
78.16, 12
78.17, 12
78.18, 6
78.19, 13
78.2, 6
78.21, 13
78.22, 12
78.23, 13
78.24, 23
78.25, 11
78.26, 9
78.27, 12
78.28, 22
78.29, 18
78.3, 20
78.31, 14
78.32, 19
78.33, 12
78.34, 9
78.35, 16
78.36, 15
78.37, 10
78.38, 15
78.39, 10
78.4, 10
78.41, 10
78.42, 14
78.43, 14
78.44, 22
78.45, 15
78.46, 23
78.47, 14
78.48, 14
78.49, 15
78.5, 13
78.51, 9
78.52, 16
78.53, 22
78.54, 13
78.55, 15
78.56, 14
78.57, 16
78.58, 15
78.59, 7
78.6, 17
78.61, 13
78.62, 16
78.63, 12
78.64, 17
78.65, 19
78.66, 13
78.67, 13
78.68, 15
78.69, 14
78.7, 15
78.71, 19
78.72, 18
78.73, 19
78.74, 17
78.75, 10
78.76, 16
78.77, 19
78.78, 16
78.79, 15
78.8, 16
78.81, 15
78.82, 15
78.83, 12
78.84, 11
78.85, 15
78.86, 20
78.87, 22
78.88, 23
78.89, 15
78.9, 13
78.91, 16
78.92, 18
78.93, 9
78.94, 11
78.95, 22
78.96, 11
78.97, 14
78.98, 13
78.99, 21
79, 11
79.01, 18
79.02, 15
79.03, 17
79.04, 16
79.05, 13
79.06, 14
79.07, 18
79.08, 19
79.09, 12
79.1, 19
79.11, 17
79.12, 24
79.13, 12
79.14, 15
79.15, 20
79.16, 16
79.17, 15
79.18, 13
79.19, 15
79.2, 17
79.21, 6
79.22, 22
79.23, 12
79.24, 15
79.25, 8
79.26, 12
79.27, 12
79.28, 10
79.29, 14
79.3, 11
79.31, 16
79.32, 13
79.33, 15
79.34, 11
79.35, 14
79.36, 13
79.37, 18
79.38, 18
79.39, 10
79.4, 20
79.41, 8
79.42, 15
79.43, 9
79.44, 16
79.45, 13
79.46, 9
79.47, 10
79.48, 11
79.49, 19
79.5, 22
79.51, 12
79.52, 11
79.53, 14
79.54, 10
79.55, 13
79.56, 8
79.57, 21
79.58, 11
79.59, 20
79.6, 10
79.61, 11
79.62, 11
79.63, 15
79.64, 11
79.65, 17
79.66, 17
79.67, 18
79.68, 17
79.69, 25
79.7, 11
79.71, 15
79.72, 15
79.73, 16
79.74, 13
79.75, 8
79.76, 13
79.77, 17
79.78, 18
79.79, 6
79.8, 9
79.81, 14
79.82, 15
79.83, 13
79.84, 15
79.85, 13
79.86, 8
79.87, 28
79.88, 13
79.89, 16
79.9, 9
79.91, 18
79.92, 9
79.93, 15
79.94, 13
79.95, 17
79.96, 13
79.97, 19
79.98, 23
79.99, 17
80, 14
80.01, 19
80.02, 14
80.03, 8
80.04, 19
80.05, 8
80.06, 19
80.07, 15
80.08, 19
80.09, 12
80.1, 12
80.11, 11
80.12, 18
80.13, 16
80.14, 7
80.15, 14
80.16, 3
80.17, 17
80.18, 16
80.19, 15
80.2, 13
80.21, 18
80.22, 12
80.23, 21
80.24, 14
80.25, 20
80.26, 10
80.27, 15
80.28, 15
80.29, 18
80.3, 8
80.31, 11
80.32, 18
80.33, 18
80.34, 13
80.35, 14
80.36, 17
80.37, 17
80.38, 15
80.39, 20
80.4, 16
80.41, 12
80.42, 11
80.43, 6
80.44, 16
80.45, 16
80.46, 14
80.47, 11
80.48, 19
80.49, 16
80.5, 19
80.51, 13
80.52, 13
80.53, 15
80.54, 17
80.55, 21
80.56, 15
80.57, 18
80.58, 12
80.59, 14
80.6, 17
80.61, 19
80.62, 11
80.63, 15
80.64, 17
80.65, 19
80.66, 11
80.67, 26
80.68, 9
80.69, 16
80.7, 19
80.71, 20
80.72, 16
80.73, 10
80.74, 13
80.75, 12
80.76, 16
80.77, 14
80.78, 26
80.79, 15
80.8, 23
80.81, 28
80.82, 22
80.83, 21
80.84, 12
80.85, 23
80.86, 22
80.87, 19
80.88, 9
80.89, 18
80.9, 31
80.91, 18
80.92, 29
80.93, 39
80.94, 18
80.95, 27
80.96, 27
80.97, 28
80.98, 24
80.99, 19
81, 16
81.01, 23
81.02, 23
81.03, 27
81.04, 16
81.05, 19
81.06, 20
81.07, 20
81.08, 28
81.09, 18
81.1, 16
81.11, 17
81.12, 18
81.13, 21
81.14, 13
81.15, 28
81.16, 36
81.17, 19
81.18, 21
81.19, 25
81.2, 21
81.21, 28
81.22, 28
81.23, 26
81.24, 23
81.25, 22
81.26, 27
81.27, 18
81.28, 16
81.29, 22
81.3, 26
81.31, 23
81.32, 15
81.33, 23
81.34, 20
81.35, 25
81.36, 32
81.37, 28
81.38, 26
81.39, 26
81.4, 26
81.41, 30
81.42, 26
81.43, 22
81.44, 39
81.45, 38
81.46, 41
81.47, 44
81.48, 50
81.49, 56
81.5, 63
81.51, 64
81.52, 63
81.53, 75
81.54, 84
81.55, 91
81.56, 91
81.57, 70
81.58, 56
81.59, 61
81.6, 47
81.61, 45
81.62, 37
81.63, 32
81.64, 46
81.65, 27
81.66, 33
81.67, 24
81.68, 38
81.69, 33
81.7, 27
81.71, 27
81.72, 36
81.73, 31
81.74, 38
81.75, 50
81.76, 56
81.77, 63
81.78, 54
81.79, 53
81.8, 49
81.81, 39
81.82, 53
81.83, 49
81.84, 43
81.85, 27
81.86, 28
81.87, 24
81.88, 23
81.89, 21
81.9, 21
81.91, 24
81.92, 23
81.93, 19
81.94, 23
81.95, 24
81.96, 27
81.97, 13
81.98, 21
81.99, 12
82, 14
82.01, 16
82.02, 25
82.03, 14
82.04, 23
82.05, 25
82.06, 24
82.07, 20
82.08, 22
82.09, 26
82.1, 29
82.11, 26
82.12, 19
82.13, 30
82.14, 31
82.15, 29
82.16, 31
82.17, 25
82.18, 31
82.19, 18
82.2, 23
82.21, 18
82.22, 13
82.23, 16
82.24, 16
82.25, 21
82.26, 20
82.27, 19
82.28, 15
82.29, 17
82.3, 23
82.31, 26
82.32, 23
82.33, 16
82.34, 18
82.35, 19
82.36, 25
82.37, 26
82.38, 24
82.39, 17
82.4, 21
82.41, 21
82.42, 16
82.43, 15
82.44, 12
82.45, 14
82.46, 17
82.47, 18
82.48, 17
82.49, 13
82.5, 20
82.51, 21
82.52, 19
82.53, 23
82.54, 18
82.55, 19
82.56, 18
82.57, 20
82.58, 19
82.59, 9
82.6, 13
82.61, 13
82.62, 12
82.63, 21
82.64, 15
82.65, 15
82.66, 11
82.67, 14
82.68, 10
82.69, 12
82.7, 12
82.71, 15
82.72, 23
82.73, 8
82.74, 21
82.75, 17
82.76, 15
82.77, 25
82.78, 22
82.79, 21
82.8, 13
82.81, 14
82.82, 13
82.83, 19
82.84, 19
82.85, 19
82.86, 11
82.87, 13
82.88, 21
82.89, 13
82.9, 19
82.91, 14
82.92, 14
82.93, 25
82.94, 9
82.95, 21
82.96, 12
82.97, 18
82.98, 8
82.99, 14
83, 20
83.01, 13
83.02, 13
83.03, 13
83.04, 12
83.05, 12
83.06, 11
83.07, 20
83.08, 18
83.09, 16
83.1, 18
83.11, 15
83.12, 14
83.13, 14
83.14, 13
83.15, 10
83.16, 12
83.17, 16
83.18, 11
83.19, 15
83.2, 21
83.21, 16
83.22, 14
83.23, 23
83.24, 27
83.25, 18
83.26, 15
83.27, 18
83.28, 22
83.29, 24
83.3, 18
83.31, 24
83.32, 17
83.33, 25
83.34, 15
83.35, 20
83.36, 22
83.37, 15
83.38, 20
83.39, 22
83.4, 30
83.41, 16
83.42, 30
83.43, 24
83.44, 29
83.45, 13
83.46, 27
83.47, 23
83.48, 22
83.49, 24
83.5, 18
83.51, 17
83.52, 24
83.53, 19
83.54, 20
83.55, 22
83.56, 24
83.57, 26
83.58, 25
83.59, 24
83.6, 33
83.61, 24
83.62, 19
83.63, 28
83.64, 31
83.65, 26
83.66, 36
83.67, 37
83.68, 46
83.69, 35
83.7, 45
83.71, 69
83.72, 70
83.73, 64
83.74, 69
83.75, 81
83.76, 68
83.77, 100
83.78, 99
83.79, 105
83.8, 88
83.81, 100
83.82, 92
83.83, 79
83.84, 71
83.85, 54
83.86, 52
83.87, 50
83.88, 48
83.89, 47
83.9, 39
83.91, 46
83.92, 31
83.93, 47
83.94, 39
83.95, 48
83.96, 41
83.97, 45
83.98, 46
83.99, 43
84, 67
84.01, 61
84.02, 45
84.03, 52
84.04, 65
84.05, 66
84.06, 63
84.07, 56
84.08, 42
84.09, 41
84.1, 42
84.11, 26
84.12, 27
84.13, 28
84.14, 35
84.15, 29
84.16, 32
84.17, 31
84.18, 27
84.19, 23
84.2, 23
84.21, 19
84.22, 31
84.23, 26
84.24, 16
84.25, 18
84.26, 21
84.27, 25
84.28, 19
84.29, 15
84.3, 19
84.31, 19
84.32, 16
84.33, 23
84.34, 19
84.35, 13
84.36, 25
84.37, 20
84.38, 23
84.39, 18
84.4, 26
84.41, 16
84.42, 19
84.43, 20
84.44, 24
84.45, 23
84.46, 21
84.47, 20
84.48, 18
84.49, 17
84.5, 13
84.51, 20
84.52, 28
84.53, 20
84.54, 17
84.55, 21
84.56, 27
84.57, 16
84.58, 16
84.59, 17
84.6, 23
84.61, 19
84.62, 27
84.63, 22
84.64, 18
84.65, 19
84.66, 27
84.67, 27
84.68, 21
84.69, 35
84.7, 20
84.71, 22
84.72, 24
84.73, 34
84.74, 39
84.75, 34
84.76, 41
84.77, 44
84.78, 58
84.79, 55
84.8, 68
84.81, 61
84.82, 67
84.83, 59
84.84, 66
84.85, 60
84.86, 57
84.87, 35
84.88, 43
84.89, 38
84.9, 24
84.91, 26
84.92, 28
84.93, 41
84.94, 30
84.95, 30
84.96, 24
84.97, 32
84.98, 28
84.99, 29
85, 37
85.01, 29
85.02, 29
85.03, 37
85.04, 41
85.05, 40
85.06, 41
85.07, 32
85.08, 39
85.09, 43
85.1, 32
85.11, 38
85.12, 32
85.13, 29
85.14, 26
85.15, 19
85.16, 26
85.17, 25
85.18, 19
85.19, 22
85.2, 13
85.21, 22
85.22, 23
85.23, 27
85.24, 23
85.25, 23
85.26, 21
85.27, 18
85.28, 18
85.29, 19
85.3, 27
85.31, 14
85.32, 15
85.33, 21
85.34, 15
85.35, 14
85.36, 19
85.37, 23
85.38, 19
85.39, 10
85.4, 17
85.41, 19
85.42, 16
85.43, 18
85.44, 14
85.45, 15
85.46, 19
85.47, 13
85.48, 19
85.49, 16
85.5, 12
85.51, 16
85.52, 14
85.53, 10
85.54, 10
85.55, 25
85.56, 12
85.57, 18
85.58, 19
85.59, 19
85.6, 21
85.61, 14
85.62, 26
85.63, 9
85.64, 19
85.65, 13
85.66, 13
85.67, 22
85.68, 21
85.69, 25
85.7, 12
85.71, 5
85.72, 19
85.73, 17
85.74, 14
85.75, 14
85.76, 15
85.77, 19
85.78, 8
85.79, 18
85.8, 12
85.81, 10
85.82, 17
85.83, 6
85.84, 12
85.85, 10
85.86, 16
85.87, 19
85.88, 15
85.89, 13
85.9, 18
85.91, 15
85.92, 19
85.93, 13
85.94, 14
85.95, 16
85.96, 20
85.97, 7
85.98, 11
85.99, 20
86, 14
86.01, 14
86.02, 16
86.03, 12
86.04, 14
86.05, 15
86.06, 11
86.07, 29
86.08, 9
86.09, 27
86.1, 20
86.11, 7
86.12, 16
86.13, 25
86.14, 15
86.15, 15
86.16, 11
86.17, 11
86.18, 18
86.19, 10
86.2, 12
86.21, 13
86.22, 19
86.23, 18
86.24, 12
86.25, 20
86.26, 18
86.27, 14
86.28, 19
86.29, 20
86.3, 9
86.31, 22
86.32, 16
86.33, 16
86.34, 15
86.35, 12
86.36, 17
86.37, 17
86.38, 17
86.39, 16
86.4, 16
86.41, 22
86.42, 17
86.43, 21
86.44, 22
86.45, 23
86.46, 33
86.47, 27
86.48, 27
86.49, 21
86.5, 19
86.51, 27
86.52, 17
86.53, 27
86.54, 23
86.55, 19
86.56, 28
86.57, 21
86.58, 16
86.59, 20
86.6, 14
86.61, 24
86.62, 22
86.63, 13
86.64, 21
86.65, 16
86.66, 19
86.67, 16
86.68, 18
86.69, 22
86.7, 10
86.71, 14
86.72, 24
86.73, 21
86.74, 20
86.75, 18
86.76, 16
86.77, 25
86.78, 21
86.79, 18
86.8, 16
86.81, 13
86.82, 15
86.83, 14
86.84, 18
86.85, 15
86.86, 12
86.87, 24
86.88, 12
86.89, 18
86.9, 15
86.91, 21
86.92, 20
86.93, 13
86.94, 25
86.95, 16
86.96, 15
86.97, 15
86.98, 11
86.99, 17
87, 17
87.01, 15
87.02, 22
87.03, 16
87.04, 16
87.05, 20
87.06, 20
87.07, 14
87.08, 18
87.09, 9
87.1, 19
87.11, 18
87.12, 9
87.13, 20
87.14, 15
87.15, 11
87.16, 15
87.17, 17
87.18, 11
87.19, 10
87.2, 21
87.21, 12
87.22, 10
87.23, 16
87.24, 15
87.25, 15
87.26, 10
87.27, 10
87.28, 8
87.29, 11
87.3, 21
87.31, 17
87.32, 21
87.33, 10
87.34, 20
87.35, 15
87.36, 14
87.37, 12
87.38, 8
87.39, 11
87.4, 20
87.41, 24
87.42, 12
87.43, 17
87.44, 16
87.45, 11
87.46, 18
87.47, 22
87.48, 14
87.49, 12
87.5, 17
87.51, 15
87.52, 13
87.53, 11
87.54, 20
87.55, 13
87.56, 8
87.57, 17
87.58, 10
87.59, 19
87.6, 12
87.61, 11
87.62, 15
87.63, 16
87.64, 15
87.65, 12
87.66, 19
87.67, 8
87.68, 18
87.69, 11
87.7, 22
87.71, 21
87.72, 10
87.73, 12
87.74, 16
87.75, 16
87.76, 16
87.77, 13
87.78, 14
87.79, 18
87.8, 20
87.81, 11
87.82, 11
87.83, 14
87.84, 7
87.85, 16
87.86, 8
87.87, 25
87.88, 13
87.89, 18
87.9, 18
87.91, 13
87.92, 16
87.93, 12
87.94, 14
87.95, 30
87.96, 17
87.97, 13
87.98, 11
87.99, 10
88, 19
88.01, 15
88.02, 10
88.03, 17
88.04, 19
88.05, 15
88.06, 11
88.07, 9
88.08, 15
88.09, 16
88.1, 24
88.11, 17
88.12, 15
88.13, 11
88.14, 17
88.15, 10
88.16, 13
88.17, 13
88.18, 19
88.19, 17
88.2, 14
88.21, 16
88.22, 17
88.23, 14
88.24, 15
88.25, 11
88.26, 14
88.27, 11
88.28, 14
88.29, 17
88.3, 15
88.31, 11
88.32, 18
88.33, 12
88.34, 10
88.35, 18
88.36, 15
88.37, 15
88.38, 16
88.39, 18
88.4, 13
88.41, 21
88.42, 12
88.43, 9
88.44, 15
88.45, 14
88.46, 10
88.47, 19
88.48, 13
88.49, 13
88.5, 14
88.51, 8
88.52, 12
88.53, 21
88.54, 21
88.55, 13
88.56, 20
88.57, 17
88.58, 8
88.59, 17
88.6, 12
88.61, 14
88.62, 12
88.63, 16
88.64, 10
88.65, 14
88.66, 15
88.67, 17
88.68, 9
88.69, 18
88.7, 6
88.71, 13
88.72, 12
88.73, 15
88.74, 16
88.75, 16
88.76, 18
88.77, 15
88.78, 14
88.79, 19
88.8, 13
88.81, 15
88.82, 18
88.83, 21
88.84, 10
88.85, 11
88.86, 12
88.87, 13
88.88, 11
88.89, 19
88.9, 13
88.91, 16
88.92, 14
88.93, 12
88.94, 14
88.95, 9
88.96, 20
88.97, 8
88.98, 27
88.99, 20
89, 11
89.01, 14
89.02, 22
89.03, 12
89.04, 9
89.05, 14
89.06, 14
89.07, 23
89.08, 11
89.09, 13
89.1, 11
89.11, 9
89.12, 7
89.13, 22
89.14, 16
89.15, 20
89.16, 16
89.17, 21
89.18, 15
89.19, 14
89.2, 14
89.21, 15
89.22, 33
89.23, 25
89.24, 17
89.25, 17
89.26, 18
89.27, 9
89.28, 11
89.29, 13
89.3, 13
89.31, 16
89.32, 18
89.33, 17
89.34, 15
89.35, 19
89.36, 8
89.37, 15
89.38, 15
89.39, 13
89.4, 12
89.41, 19
89.42, 14
89.43, 10
89.44, 10
89.45, 11
89.46, 15
89.47, 16
89.48, 11
89.49, 11
89.5, 21
89.51, 19
89.52, 14
89.53, 9
89.54, 15
89.55, 14
89.56, 13
89.57, 23
89.58, 19
89.59, 9
89.6, 17
89.61, 14
89.62, 13
89.63, 14
89.64, 19
89.65, 15
89.66, 15
89.67, 15
89.68, 11
89.69, 10
89.7, 13
89.71, 15
89.72, 11
89.73, 12
89.74, 4
89.75, 13
89.76, 15
89.77, 20
89.78, 18
89.79, 19
89.8, 16
89.81, 13
89.82, 17
89.83, 16
89.84, 16
89.85, 16
89.86, 11
89.87, 17
89.88, 13
89.89, 21
89.9, 12
89.91, 20
89.92, 13
89.93, 14
89.94, 20
89.95, 16
89.96, 16
89.97, 20
89.98, 13
89.99, 18
90, 15
##END=



