##NAMES=Cechite
##RRUFFID=R170047
##IDEAL CHEMISTRY=Pb^2+^Fe^2+^V^5+^O_4_(OH)
##LOCALITY=Maria Magdalena mine, Ulldemolins, Priorat, Tarragona, Catalonia, Spain
##OWNER=Joan Rosell
##SOURCE=Joan Rosell, Tariq Jawhari, Jordi Ibáñez and Xavier Llovet (CCiTUB Barcelona)
##DESCRIPTION=Black tabular or pyramidal crystals
##DIFFRACTION SAMPLE DESCRIPTION=Powder
##STATUS=The identification of this mineral has been confirmed by X-ray diffraction and chemical analysis
##URL=rruff.info/R170047
##MEASURED CHEMISTRY=Pb_1.00_(Fe_0.97_Zn_0.01_)(VO_4_)_1.00_(OH)_0.96_
##CELL PARAMETERS=a: 7.6028(2) b: 9.4343(3) c: 6.0902(2) alpha: 90 beta: 90 gamma: 90 volume: 436.83(2) crystal system: orthorhombic
12.01420, 0.0000000E+00
12.02891, 0.3841550
12.04361, 9.082275
12.05831, 23.32202
12.07301, 51.26575
12.08772, 20.53552
12.10242, 1.133911
12.11712, 56.75952
12.13183, 78.69092
12.14653, 54.96973
12.16123, 48.78687
12.17593, 21.21997
12.19064, 75.88977
12.20534, 85.86621
12.22004, 56.63330
12.23474, 42.94519
12.24945, 70.37817
12.26415, 138.6464
12.27885, 94.56665
12.29356, 61.01746
12.30826, 84.61987
12.32296, 64.99915
12.33766, 123.0780
12.35237, 28.62622
12.36707, 51.60254
12.38177, 73.05945
12.39647, 22.60718
12.41118, 26.33447
12.42588, 11.65771
12.44058, 40.50366
12.45529, 10.97791
12.46999, 96.75159
12.48469, 66.44995
12.49939, 57.88074
12.51410, 68.21729
12.52880, 22.41467
12.54350, 72.96960
12.55820, 62.52673
12.57291, 62.68750
12.58761, 69.73914
12.60231, 64.62354
12.61702, 157.8549
12.63172, 80.44824
12.64642, 94.46643
12.66112, 50.28125
12.67583, 68.91943
12.69053, 61.77100
12.70523, 98.44080
12.71993, 32.72571
12.73464, 59.49561
12.74934, 69.10730
12.76404, 36.82959
12.77875, 39.94983
12.79345, 58.81860
12.80815, 48.47095
12.82285, 87.35431
12.83756, 126.3491
12.85226, 46.61304
12.86696, 66.56622
12.88166, 46.83289
12.89637, 46.50977
12.91107, 95.19635
12.92577, 83.59045
12.94047, 26.66736
12.95518, 24.52368
12.96988, 80.73303
12.98458, 44.29944
12.99929, 82.42096
13.01399, 54.81470
13.02869, 66.20703
13.04339, 59.40149
13.05810, 98.09882
13.07280, 70.15240
13.08750, 15.09137
13.10220, 53.47052
13.11691, 54.51007
13.13161, 26.92255
13.14631, 88.15802
13.16102, 85.43298
13.17572, 37.30402
13.19042, 79.70795
13.20512, 23.70782
13.21983, 33.20654
13.23453, 104.5317
13.24923, 90.09222
13.26393, 86.05927
13.27864, 72.16589
13.29334, 29.94702
13.30804, 58.17639
13.32275, 29.36804
13.33745, 0.5346070
13.35215, 30.56671
13.36685, 83.60242
13.38156, 76.51843
13.39626, 86.71503
13.41096, 45.59680
13.42566, 47.46313
13.44037, 28.22815
13.45507, 67.31952
13.46977, 61.97272
13.48448, 68.11133
13.49918, 65.02374
13.51388, 92.84772
13.52858, 57.98071
13.54329, 5.551819
13.55799, 28.74933
13.57269, 71.45337
13.58739, 59.84698
13.60210, 60.68420
13.61680, 24.81726
13.63150, 25.89819
13.64621, 0.8265990
13.66091, 18.42163
13.67561, 17.93115
13.69031, 1.979187
13.70502, 27.61951
13.71972, 75.46814
13.73442, 14.83087
13.74912, 58.86841
13.76383, 44.34650
13.77853, 44.43707
13.79323, 67.09106
13.80794, 17.93561
13.82264, 51.04620
13.83734, 10.82776
13.85204, 79.88257
13.86675, 49.38141
13.88145, 76.09503
13.89615, 67.98383
13.91085, 85.03467
13.92556, 46.54297
13.94026, 10.34204
13.95496, 87.60760
13.96967, 42.27850
13.98437, 65.96259
13.99907, 77.88586
14.01377, 61.21539
14.02848, 96.59143
14.04318, 80.18597
14.05788, 50.60455
14.07258, 62.22864
14.08729, 18.05585
14.10199, 8.423767
14.11669, 85.80811
14.13140, 54.23688
14.14610, 33.75842
14.16080, 29.37299
14.17550, 67.44672
14.19021, 40.16003
14.20491, 57.97748
14.21961, 36.18011
14.23431, 51.22186
14.24902, 51.13843
14.26372, 28.68518
14.27842, 29.19263
14.29313, 55.14594
14.30783, 39.04810
14.32253, 26.12781
14.33723, 32.77179
14.35194, 78.44061
14.36664, 17.68005
14.38134, 47.88672
14.39604, 65.62891
14.41075, 56.15717
14.42545, 15.83698
14.44015, 27.64825
14.45486, 58.34711
14.46956, 47.47369
14.48426, 55.80481
14.49896, 76.32867
14.51367, 39.37744
14.52837, 51.88416
14.54307, 85.02289
14.55777, 77.62787
14.57248, 56.94928
14.58718, 46.80762
14.60188, 33.35712
14.61659, 18.32825
14.63129, 40.09326
14.64599, 72.91559
14.66069, 67.41113
14.67540, 74.27417
14.69010, 81.86945
14.70480, 39.62653
14.71950, 3.839844
14.73421, 44.72375
14.74891, 22.05573
14.76361, 24.65204
14.77832, 64.53485
14.79302, 72.11707
14.80772, 53.45557
14.82242, 76.72583
14.83713, 38.30920
14.85183, 53.66003
14.86653, 22.80255
14.88123, 31.48102
14.89594, 64.52002
14.91064, 90.23798
14.92534, 57.15924
14.94005, 89.18555
14.95475, 89.64880
14.96945, 45.55261
14.98415, 55.44556
14.99886, 9.445984
15.01356, 62.18866
15.02826, 54.80365
15.04296, 15.87592
15.05767, 40.92865
15.07237, 63.49194
15.08707, 43.19373
15.10178, 6.931091
15.11648, 70.65839
15.13118, 40.42584
15.14588, 12.20190
15.16059, 55.36188
15.17529, 57.54486
15.18999, 114.7058
15.20469, 25.29108
15.21940, 88.29730
15.23410, 33.01129
15.24880, 19.09570
15.26351, 57.79907
15.27821, 13.44489
15.29291, 87.19183
15.30761, 56.15088
15.32232, 37.96851
15.33702, 26.82318
15.35172, 60.29156
15.36642, 27.55225
15.38113, 42.88287
15.39583, 8.103699
15.41053, 11.21265
15.42524, 0.2543330
15.43994, 22.24390
15.45464, 36.27203
15.46934, 5.018494
15.48405, 21.22095
15.49875, 24.20392
15.51345, 14.95123
15.52815, 15.04065
15.54286, 23.38824
15.55756, 62.28943
15.57226, 24.21246
15.58697, 44.14362
15.60167, 22.63025
15.61637, 65.48560
15.63107, 60.74329
15.64578, 11.23413
15.66048, 41.78937
15.67518, 33.32996
15.68988, 0.8540040
15.70459, 54.94086
15.71929, 53.44867
15.73399, 38.74927
15.74870, 61.92670
15.76340, 61.14319
15.77810, 36.16675
15.79280, 44.20300
15.80751, 20.86823
15.82221, 52.76752
15.83691, 41.19507
15.85161, 5.521973
15.86632, 56.51508
15.88102, 66.65741
15.89572, 47.02405
15.91043, 25.67426
15.92513, 59.98871
15.93983, 0.6621090
15.95453, 57.78674
15.96924, 69.59515
15.98394, 41.38672
15.99864, 11.94830
16.01334, 16.00568
16.02805, 13.06439
16.04275, 12.85925
16.05745, 2.219238
16.07215, 0.1713870
16.08686, 47.47888
16.10156, 5.947266
16.11626, 4.049133
16.13097, 42.12848
16.14567, 61.44653
16.16037, 11.16064
16.17507, 7.278381
16.18978, 22.92029
16.20448, 16.24481
16.21918, 0.7359620
16.23388, 27.37000
16.24859, 18.55133
16.26329, 11.11853
16.27799, 20.90991
16.29270, 7.415955
16.30740, 74.94592
16.32210, 60.86584
16.33680, 38.36761
16.35151, 39.68506
16.36621, 28.74249
16.38091, 45.81604
16.39561, 35.64496
16.41032, 10.12976
16.42502, 20.63666
16.43972, 39.04114
16.45443, 12.42816
16.46913, 18.11969
16.48383, 39.93524
16.49853, 34.50763
16.51324, 15.02856
16.52794, 47.19897
16.54264, 15.68066
16.55734, 11.07306
16.57205, 8.196472
16.58675, 33.41144
16.60145, 21.66620
16.61616, 23.09528
16.63086, 48.89160
16.64556, 6.561584
16.66026, 12.88586
16.67497, 3.420898
16.68967, 41.65198
16.70437, 38.79974
16.71907, 41.20160
16.73378, 13.63202
16.74848, 38.90393
16.76318, 35.87726
16.77789, 115.5180
16.79259, 94.01685
16.80729, 58.00439
16.82199, 21.20355
16.83670, 43.42413
16.85140, 79.18634
16.86610, 37.14392
16.88080, 32.27759
16.89551, 61.18689
16.91021, 50.80518
16.92491, 61.26532
16.93962, 62.60638
16.95432, 90.07648
16.96902, 70.08563
16.98372, 85.49078
16.99843, 77.66888
17.01313, 117.0912
17.02783, 140.0594
17.04253, 80.16833
17.05724, 114.2739
17.07194, 134.8163
17.08664, 112.0935
17.10135, 97.37360
17.11605, 131.7200
17.13075, 161.3164
17.14545, 154.5359
17.16016, 236.3759
17.17486, 233.4986
17.18956, 305.0723
17.20426, 356.9979
17.21897, 499.6692
17.23367, 642.0063
17.24837, 890.8649
17.26308, 1323.317
17.27778, 1905.545
17.29248, 2785.470
17.30718, 4144.541
17.32189, 5598.788
17.33659, 5585.254
17.35129, 4535.422
17.36599, 3946.838
17.38070, 3242.897
17.39540, 2101.048
17.41010, 1474.801
17.42481, 1015.900
17.43951, 756.8114
17.45421, 679.6786
17.46891, 596.9695
17.48362, 475.0096
17.49832, 440.6238
17.51302, 380.5450
17.52772, 322.9673
17.54243, 290.8291
17.55713, 249.4152
17.57183, 155.2053
17.58654, 147.6851
17.60124, 176.3766
17.61594, 204.3101
17.63064, 95.63843
17.64535, 134.9640
17.66005, 133.4531
17.67475, 92.37488
17.68945, 79.10822
17.70416, 144.1793
17.71886, 89.78448
17.73356, 69.08203
17.74827, 50.97510
17.76297, 84.62390
17.77767, 58.93274
17.79237, 8.831848
17.80708, 72.79028
17.82178, 54.07465
17.83648, 75.30316
17.85118, 108.3417
17.86589, 90.11920
17.88059, 84.01361
17.89529, 92.28857
17.91000, 136.5101
17.92470, 113.3323
17.93940, 172.1824
17.95410, 121.4359
17.96881, 223.5699
17.98351, 236.7557
17.99821, 254.1758
18.01291, 338.1926
18.02762, 326.4419
18.04232, 263.9613
18.05702, 232.2057
18.07173, 177.1234
18.08643, 192.1880
18.10113, 176.3110
18.11583, 129.9655
18.13054, 119.9011
18.14524, 123.0453
18.15994, 112.4804
18.17464, 99.73761
18.18935, 94.23633
18.20405, 67.42499
18.21875, 69.43616
18.23346, 105.8128
18.24816, 75.34100
18.26286, 106.4702
18.27756, 65.59650
18.29227, 69.56329
18.30697, 62.50574
18.32167, 26.20374
18.33637, 1.125183
18.35108, 46.64941
18.36578, 29.30524
18.38048, 7.738647
18.39519, 62.19940
18.40989, 55.81915
18.42459, 34.25140
18.43929, 68.71619
18.45400, 13.94110
18.46870, 39.96729
18.48340, 38.93494
18.49810, 31.58722
18.51281, 25.79529
18.52751, 37.04327
18.54221, 52.64404
18.55692, 71.36005
18.57162, 64.66803
18.58632, 44.88892
18.60102, 62.42401
18.61573, 63.78296
18.63043, 37.88171
18.64513, 128.2744
18.65983, 91.78833
18.67454, 177.3091
18.68924, 194.8796
18.70394, 254.1298
18.71865, 330.7695
18.73335, 464.4344
18.74805, 693.5376
18.76275, 1068.490
18.77746, 1565.398
18.79216, 2399.889
18.80686, 2960.905
18.82156, 2669.081
18.83627, 2120.929
18.85097, 1881.253
18.86567, 1469.515
18.88038, 973.9370
18.89508, 591.9523
18.90978, 433.4376
18.92448, 277.9025
18.93919, 260.3969
18.95389, 235.6390
18.96859, 146.7694
18.98329, 175.1367
18.99800, 172.9952
19.01270, 131.7469
19.02740, 106.4768
19.04210, 66.90430
19.05681, 114.9622
19.07151, 77.25940
19.08621, 116.2839
19.10092, 157.9808
19.11562, 45.79663
19.13032, 112.8009
19.14502, 87.63599
19.15973, 131.3140
19.17443, 121.1423
19.18913, 86.16919
19.20383, 74.30243
19.21854, 70.28699
19.23324, 67.11755
19.24794, 101.3501
19.26265, 66.65094
19.27735, 69.11188
19.29205, 112.5410
19.30675, 126.6816
19.32146, 134.4345
19.33616, 58.00208
19.35086, 107.3372
19.36556, 92.09668
19.38027, 88.57117
19.39497, 116.5619
19.40967, 90.79791
19.42438, 32.93097
19.43908, 62.73663
19.45378, 71.22162
19.46848, 74.02155
19.48319, 57.29480
19.49789, 52.46436
19.51259, 58.08606
19.52729, 30.26172
19.54200, 26.08490
19.55670, 58.81677
19.57140, 8.520874
19.58611, 23.39117
19.60081, 7.432800
19.61551, 27.26251
19.63021, 10.76929
19.64492, 19.59204
19.65962, 2.282166
19.67432, 56.80316
19.68902, 53.75372
19.70373, 5.162109
19.71843, 1.955627
19.73313, 0.6053470
19.74784, 20.15985
19.76254, 35.02625
19.77724, 56.68744
19.79194, 33.75677
19.80665, 28.74115
19.82135, 38.08325
19.83605, 8.283264
19.85075, 33.65222
19.86546, 11.71222
19.88016, 49.47241
19.89486, 64.46637
19.90957, 25.89569
19.92427, 22.77777
19.93897, 11.95569
19.95367, 34.44635
19.96838, 35.15039
19.98308, 1.358704
19.99778, 7.755737
20.01248, 26.30048
20.02719, 62.71216
20.04189, 22.55786
20.05659, 28.01709
20.07130, 60.24115
20.08600, 21.67853
20.10070, 7.166992
20.11540, 36.83014
20.13011, 15.14832
20.14481, 8.246399
20.15951, 19.02570
20.17421, 14.71783
20.18892, 59.06921
20.20362, 51.35248
20.21832, 69.42877
20.23303, 57.25226
20.24773, 35.21356
20.26243, 66.69794
20.27713, 13.67004
20.29184, 11.91925
20.30654, 10.64148
20.32124, 56.11383
20.33594, 44.92773
20.35065, 25.49274
20.36535, 39.28046
20.38005, 65.41968
20.39476, 74.75562
20.40946, 19.00336
20.42416, 63.23883
20.43886, 64.81207
20.45357, 86.69086
20.46827, 17.59955
20.48297, 63.48322
20.49767, 71.55469
20.51238, 23.39880
20.52708, 19.58661
20.54178, 9.907166
20.55649, 22.09131
20.57119, 5.906799
20.58589, 26.68658
20.60059, 57.40070
20.61530, 46.06970
20.63000, 60.39832
20.64470, 76.45319
20.65940, 80.04175
20.67411, 76.37109
20.68881, 70.93506
20.70351, 43.26086
20.71822, 85.36023
20.73292, 95.94434
20.74762, 105.3249
20.76232, 162.4974
20.77703, 240.9805
20.79173, 240.6333
20.80643, 301.1218
20.82113, 448.7180
20.83584, 500.1719
20.85054, 773.6892
20.86524, 1119.487
20.87995, 1578.713
20.89465, 2388.053
20.90935, 3326.243
20.92405, 3580.837
20.93876, 2976.755
20.95346, 2511.476
20.96816, 2408.585
20.98286, 1945.098
20.99757, 1343.929
21.01227, 896.7414
21.02697, 734.4884
21.04168, 559.6761
21.05638, 406.8962
21.07108, 368.0215
21.08578, 318.9780
21.10049, 241.9742
21.11519, 227.5623
21.12989, 247.4087
21.14459, 179.5729
21.15930, 161.7894
21.17400, 160.9624
21.18870, 130.7697
21.20341, 105.3553
21.21811, 111.1832
21.23281, 112.6156
21.24751, 62.51221
21.26222, 96.08624
21.27692, 86.78113
21.29162, 78.56757
21.30632, 81.49023
21.32103, 88.75269
21.33573, 84.59473
21.35043, 100.7760
21.36514, 42.56317
21.37984, 123.1646
21.39454, 126.3974
21.40924, 130.6151
21.42395, 157.5761
21.43865, 148.9442
21.45335, 161.1852
21.46805, 143.2564
21.48276, 88.56561
21.49746, 100.6636
21.51216, 82.78625
21.52687, 117.9332
21.54157, 59.58508
21.55627, 94.67651
21.57097, 76.90576
21.58568, 85.19318
21.60038, 81.74982
21.61508, 66.20166
21.62978, 37.77637
21.64449, 27.22949
21.65919, 56.23279
21.67389, 71.67932
21.68860, 63.87793
21.70330, 15.00281
21.71800, 40.86072
21.73270, 45.90582
21.74741, 6.531555
21.76211, 30.16925
21.77681, 55.87048
21.79151, 52.28284
21.80622, 125.0153
21.82092, 101.3403
21.83562, 32.65100
21.85033, 43.11981
21.86503, 25.50732
21.87973, 8.370911
21.89443, 43.66003
21.90914, 61.34485
21.92384, 93.43976
21.93854, 57.91492
21.95324, 74.18311
21.96795, 73.56842
21.98265, 70.20728
21.99735, 99.18207
22.01205, 114.1740
22.02676, 116.3149
22.04146, 149.7459
22.05616, 218.6813
22.07087, 322.4227
22.08557, 364.2421
22.10027, 570.2201
22.11497, 899.1710
22.12968, 1392.791
22.14438, 2221.654
22.15908, 3048.088
22.17378, 3388.632
22.18849, 2695.007
22.20319, 2186.103
22.21789, 2148.527
22.23260, 1825.419
22.24730, 1163.674
22.26200, 778.9488
22.27670, 528.3555
22.29141, 421.7314
22.30611, 380.3383
22.32081, 282.3868
22.33551, 239.1479
22.35022, 192.8627
22.36492, 176.8553
22.37962, 126.1680
22.39433, 109.8859
22.40903, 67.91541
22.42373, 73.68463
22.43843, 91.40662
22.45314, 40.74243
22.46784, 27.90900
22.48254, 60.91931
22.49724, 9.777466
22.51195, 52.31519
22.52665, 45.93463
22.54135, 68.75378
22.55606, 27.94269
22.57076, 29.36328
22.58546, 9.300171
22.60016, 18.33105
22.61487, 58.54486
22.62957, 40.17426
22.64427, 49.98944
22.65897, 43.03314
22.67368, 13.61859
22.68838, 9.559509
22.70308, 11.33466
22.71779, 15.21606
22.73249, 19.84406
22.74719, 17.72876
22.76189, 7.080017
22.77660, 43.38239
22.79130, 40.21423
22.80600, 19.37915
22.82070, 34.08197
22.83541, 49.58893
22.85011, 6.456482
22.86481, 13.84686
22.87952, 15.35248
22.89422, 55.20850
22.90892, 77.02057
22.92362, 56.87579
22.93833, 38.07703
22.95303, 47.55933
22.96773, 7.657776
22.98243, 25.14160
22.99714, 55.84888
23.01184, 16.99762
23.02654, 20.57318
23.04125, 1.065369
23.05595, 21.68268
23.07065, 12.04346
23.08535, 43.45355
23.10006, 23.25311
23.11476, 54.18829
23.12946, 63.65155
23.14416, 45.94855
23.15887, 38.60229
23.17357, 18.21118
23.18827, 19.49408
23.20298, 59.18298
23.21768, 14.86615
23.23238, 28.66010
23.24708, 32.96277
23.26179, 24.70770
23.27649, 84.64343
23.29119, 81.80573
23.30589, 30.66974
23.32060, 78.64581
23.33530, 62.47357
23.35000, 135.1591
23.36471, 167.8608
23.37941, 183.9135
23.39411, 256.3749
23.40881, 236.2131
23.42352, 225.9401
23.43822, 191.4268
23.45292, 130.8484
23.46762, 147.2880
23.48233, 91.15723
23.49703, 114.7264
23.51173, 60.43732
23.52644, 65.22064
23.54114, 70.26886
23.55584, 63.54889
23.57054, 20.04883
23.58525, 41.13257
23.59995, 29.59613
23.61465, 3.400391
23.62935, 38.70557
23.64406, 33.36615
23.65876, 41.00989
23.67346, 50.06909
23.68817, 36.65668
23.70287, 45.10156
23.71757, 38.62720
23.73227, 0.6967160
23.74698, 44.80145
23.76168, 42.31805
23.77638, 23.98743
23.79108, 18.91858
23.80579, 20.63745
23.82049, 20.19135
23.83519, 30.44806
23.84990, 15.11859
23.86460, 47.47272
23.87930, 2.020447
23.89400, 44.47510
23.90871, 51.82758
23.92341, 11.54205
23.93811, 56.58264
23.95281, 51.20691
23.96752, 13.73834
23.98222, 24.58313
23.99692, 63.16382
24.01163, 73.25629
24.02633, 56.76849
24.04103, 63.16394
24.05573, 82.56262
24.07044, 18.43774
24.08514, 52.42609
24.09984, 3.380005
24.11454, 53.36816
24.12925, 61.44580
24.14395, 3.375122
24.15865, 54.92462
24.17336, 39.99255
24.18806, 88.22797
24.20276, 63.08783
24.21746, 81.88422
24.23217, 88.49200
24.24687, 126.1372
24.26157, 52.84113
24.27627, 38.73236
24.29098, 90.76501
24.30568, 98.90717
24.32038, 14.64972
24.33509, 8.514343
24.34979, 40.86957
24.36449, 26.93872
24.37919, 41.00739
24.39390, 7.028564
24.40860, 9.000488
24.42330, 30.79254
24.43800, 22.32251
24.45271, 26.66260
24.46741, 8.283081
24.48211, 13.50787
24.49682, 31.25037
24.51152, 38.90228
24.52622, 24.27606
24.54092, 29.01727
24.55563, 13.28778
24.57033, 30.27118
24.58503, 25.82983
24.59973, 34.30365
24.61444, 18.39398
24.62914, 17.01355
24.64384, 27.09589
24.65855, 51.57758
24.67325, 61.92596
24.68795, 38.47418
24.70265, 78.85822
24.71736, 29.84790
24.73206, 47.59399
24.74676, 4.054810
24.76146, 19.75562
24.77617, 1.525391
24.79087, 31.56042
24.80557, 32.62109
24.82028, 42.50775
24.83498, 63.15729
24.84968, 55.31146
24.86438, 15.23376
24.87909, 42.01917
24.89379, 20.47467
24.90849, 31.56836
24.92319, 64.63519
24.93790, 90.84509
24.95260, 67.16620
24.96730, 62.13580
24.98200, 62.76758
24.99671, 56.11005
25.01141, 109.8208
25.02611, 100.0980
25.04082, 127.8767
25.05552, 150.3607
25.07022, 190.6575
25.08492, 221.9877
25.09963, 214.2222
25.11433, 267.8182
25.12903, 308.0573
25.14373, 292.8096
25.15844, 444.1942
25.17314, 642.4946
25.18784, 874.0486
25.20255, 1252.077
25.21725, 1805.326
25.23195, 2614.678
25.24665, 3174.633
25.26136, 2820.364
25.27606, 2360.185
25.29076, 2062.663
25.30546, 2032.551
25.32017, 1778.379
25.33487, 1313.109
25.34957, 884.3237
25.36428, 598.0623
25.37898, 421.6326
25.39368, 378.0508
25.40838, 315.9270
25.42309, 285.3241
25.43779, 179.9470
25.45249, 153.4606
25.46719, 149.4905
25.48190, 104.5155
25.49660, 35.44702
25.51130, 39.62964
25.52601, 107.2701
25.54071, 114.4745
25.55541, 37.10565
25.57011, 45.17004
25.58482, 51.32465
25.59952, 29.76593
25.61422, 46.33850
25.62892, 71.73279
25.64363, 31.43164
25.65833, 60.12701
25.67303, 11.74359
25.68774, 34.73199
25.70244, 11.63068
25.71714, 9.317383
25.73184, 21.98981
25.74655, 35.64673
25.76125, 14.97247
25.77595, 27.49255
25.79065, 51.70062
25.80536, 9.489868
25.82006, 4.826416
25.83476, 17.41370
25.84947, 9.450806
25.86417, 45.79730
25.87887, 7.500244
25.89357, 10.78021
25.90828, 4.899963
25.92298, 18.60815
25.93768, 44.00500
25.95238, 12.52747
25.96709, 40.76166
25.98179, 6.803345
25.99649, 23.34998
26.01120, 47.46729
26.02590, 46.47821
26.04060, 61.47711
26.05530, 77.29272
26.07001, 75.13623
26.08471, 60.03149
26.09941, 11.02167
26.11411, 73.78186
26.12882, 39.37732
26.14352, 50.13165
26.15822, 71.51697
26.17293, 137.6554
26.18763, 73.77087
26.20233, 115.9397
26.21703, 94.46851
26.23174, 111.1678
26.24644, 115.0464
26.26114, 103.2490
26.27584, 107.4320
26.29055, 53.83563
26.30525, 26.38171
26.31995, 58.82294
26.33466, 2.140320
26.34936, 27.33514
26.36406, 28.32129
26.37876, 36.88391
26.39347, 46.79315
26.40817, 41.12030
26.42287, 89.19574
26.43757, 57.06329
26.45228, 82.06128
26.46698, 58.62555
26.48168, 98.93817
26.49639, 141.4567
26.51109, 206.3281
26.52579, 299.5089
26.54049, 417.5383
26.55520, 584.5284
26.56990, 918.7833
26.58460, 1398.956
26.59930, 1921.354
26.61401, 1984.539
26.62871, 1741.783
26.64341, 1369.853
26.65812, 1375.310
26.67282, 1478.851
26.68752, 1257.700
26.70222, 881.2290
26.71693, 703.1252
26.73163, 562.6917
26.74633, 400.9484
26.76103, 381.5695
26.77574, 335.6223
26.79044, 246.3579
26.80514, 265.5649
26.81985, 226.4736
26.83455, 212.5463
26.84925, 170.0601
26.86395, 177.0214
26.87866, 149.6021
26.89336, 107.5790
26.90806, 158.6172
26.92276, 145.8406
26.93747, 98.82764
26.95217, 105.1491
26.96687, 65.06946
26.98158, 80.08014
26.99628, 103.0271
27.01098, 96.79370
27.02568, 90.60583
27.04039, 56.77502
27.05509, 32.69409
27.06979, 51.38507
27.08449, 105.7321
27.09920, 102.3641
27.11390, 55.90503
27.12860, 74.13989
27.14331, 97.17310
27.15801, 32.48297
27.17271, 92.19812
27.18741, 97.03027
27.20212, 145.7885
27.21682, 82.75647
27.23152, 69.38177
27.24622, 84.74994
27.26093, 125.1556
27.27563, 129.4692
27.29033, 138.6779
27.30504, 149.4217
27.31974, 173.4267
27.33444, 199.3759
27.34914, 216.4841
27.36385, 236.3677
27.37855, 308.1763
27.39325, 375.9904
27.40795, 398.8634
27.42266, 514.4868
27.43736, 643.8569
27.45206, 710.2789
27.46677, 833.4293
27.48147, 1092.372
27.49617, 1373.052
27.51087, 1617.301
27.52558, 1796.754
27.54028, 1938.577
27.55498, 2219.220
27.56968, 2631.312
27.58439, 3278.339
27.59909, 4421.477
27.61379, 6276.213
27.62850, 8926.278
27.64320, 11230.93
27.65790, 10916.35
27.67260, 8910.996
27.68731, 7405.695
27.70201, 7137.791
27.71671, 7267.602
27.73141, 6235.693
27.74612, 4392.894
27.76082, 3221.038
27.77552, 2322.324
27.79023, 1842.251
27.80493, 1602.410
27.81963, 1152.254
27.83433, 1042.257
27.84904, 905.0599
27.86374, 764.3425
27.87844, 694.3824
27.89314, 563.5674
27.90785, 545.0615
27.92255, 428.7095
27.93725, 419.5113
27.95196, 345.1541
27.96666, 340.5717
27.98136, 352.0573
27.99606, 285.0575
28.01077, 231.6329
28.02547, 229.6270
28.04017, 201.9800
28.05487, 210.2969
28.06958, 172.7067
28.08428, 150.5197
28.09898, 32.49963
28.11368, 107.6473
28.12839, 113.5757
28.14309, 86.58276
28.15779, 94.87244
28.17250, 86.82141
28.18720, 93.66638
28.20190, 138.0568
28.21660, 166.6107
28.23131, 270.4559
28.24601, 467.5521
28.26071, 791.4810
28.27541, 1036.271
28.29012, 861.7150
28.30482, 569.3417
28.31952, 443.5416
28.33423, 497.3800
28.34893, 476.7949
28.36363, 367.0206
28.37833, 253.5569
28.39304, 105.1334
28.40774, 75.94476
28.42244, 34.56989
28.43714, 55.24164
28.45185, 25.94019
28.46655, 10.29932
28.48125, 6.294983
28.49596, 8.940918
28.51066, 8.821472
28.52536, 0.7294920
28.54006, 4.190918
28.55477, 5.535767
28.56947, 11.49475
28.58417, 15.30444
28.59887, 3.022034
28.61358, 20.56616
28.62828, 21.41321
28.64298, 56.63068
28.65769, 34.18921
28.67239, 9.374146
28.68709, 0.2397460
28.70179, 24.51672
28.71650, 38.79358
28.73120, 20.58368
28.74590, 6.849976
28.76060, 7.785034
28.77531, 12.03265
28.79001, 21.15533
28.80471, 2.869690
28.81942, 28.87665
28.83412, 7.832153
28.84882, 8.673950
28.86352, 25.58807
28.87823, 67.98541
28.89293, 11.05994
28.90763, 5.082336
28.92233, 19.88098
28.93704, 40.00757
28.95174, 45.29523
28.96644, 1.483887
28.98115, 2.596802
28.99585, 58.56158
29.01055, 57.87750
29.02525, 76.61450
29.03996, 82.66254
29.05466, 107.6386
29.06936, 41.18469
29.08406, 142.8699
29.09877, 229.0101
29.11347, 172.1423
29.12817, 299.1124
29.14288, 289.1027
29.15758, 354.1217
29.17228, 375.1788
29.18698, 512.1666
29.20169, 528.4445
29.21639, 598.6784
29.23109, 738.2731
29.24579, 853.3448
29.26050, 1160.295
29.27520, 1764.577
29.28990, 2682.581
29.30461, 3506.030
29.31931, 3531.000
29.33401, 2926.336
29.34871, 2345.217
29.36342, 2164.207
29.37812, 2470.571
29.39282, 2383.765
29.40752, 1837.764
29.42223, 1280.587
29.43693, 1006.283
29.45163, 744.4845
29.46634, 579.1737
29.48104, 553.3011
29.49574, 515.9841
29.51044, 504.3699
29.52515, 424.2670
29.53985, 375.4677
29.55455, 325.0880
29.56925, 276.3728
29.58396, 304.3350
29.59866, 248.0365
29.61336, 233.8757
29.62807, 235.4683
29.64277, 260.0107
29.65747, 244.5651
29.67217, 212.0018
29.68688, 278.3234
29.70158, 288.6478
29.71628, 220.4005
29.73098, 261.9238
29.74569, 281.4382
29.76039, 262.5742
29.77509, 264.3708
29.78980, 248.8848
29.80450, 244.6646
29.81920, 242.4076
29.83390, 280.0707
29.84861, 249.8804
29.86331, 317.4763
29.87801, 333.0542
29.89271, 316.9310
29.90742, 334.0114
29.92212, 385.6677
29.93682, 391.8976
29.95153, 304.6602
29.96623, 365.0641
29.98093, 361.9855
29.99563, 357.4517
30.01034, 334.2335
30.02504, 384.6082
30.03974, 365.4969
30.05444, 347.9011
30.06915, 316.1235
30.08385, 379.2653
30.09855, 407.8436
30.11326, 406.0323
30.12796, 624.6314
30.14266, 747.6080
30.15736, 1024.961
30.17207, 1218.739
30.18677, 1143.363
30.20147, 979.7740
30.21617, 736.7325
30.23088, 662.5912
30.24558, 758.5765
30.26028, 656.3141
30.27499, 538.8532
30.28969, 395.0441
30.30439, 344.8401
30.31909, 235.5956
30.33380, 213.8699
30.34850, 182.1611
30.36320, 182.4669
30.37790, 195.9901
30.39261, 159.3514
30.40731, 122.8967
30.42201, 128.2931
30.43672, 95.11340
30.45142, 117.1768
30.46612, 155.7639
30.48082, 120.9620
30.49553, 190.6057
30.51023, 196.5090
30.52493, 130.2357
30.53963, 257.3209
30.55434, 248.2780
30.56904, 259.3243
30.58374, 353.4695
30.59845, 505.9360
30.61315, 573.2104
30.62785, 705.8089
30.64255, 851.4567
30.65726, 1182.874
30.67196, 1493.989
30.68666, 2203.184
30.70136, 3374.836
30.71607, 5165.419
30.73077, 7981.844
30.74547, 10042.59
30.76018, 9437.026
30.77488, 7124.117
30.78958, 5688.548
30.80428, 5689.557
30.81899, 6231.801
30.83369, 5878.268
30.84839, 4524.359
30.86309, 3028.677
30.87780, 2160.868
30.89250, 1652.489
30.90720, 1269.412
30.92191, 1049.583
30.93661, 792.6555
30.95131, 721.0310
30.96601, 622.3076
30.98072, 506.9515
30.99542, 527.8965
31.01012, 440.3691
31.02482, 434.7839
31.03953, 383.7009
31.05423, 298.1393
31.06893, 252.8439
31.08363, 258.2736
31.09834, 232.4327
31.11304, 266.9931
31.12774, 205.6475
31.14245, 231.1264
31.15715, 246.8024
31.17185, 175.5789
31.18655, 137.8203
31.20126, 148.5872
31.21596, 179.1772
31.23066, 151.2327
31.24536, 100.2811
31.26007, 98.17700
31.27477, 66.23621
31.28947, 70.20245
31.30418, 19.29022
31.31888, 79.09698
31.33358, 56.21918
31.34828, 56.47961
31.36299, 77.07025
31.37769, 37.37329
31.39239, 12.45850
31.40709, 23.44666
31.42180, 22.32715
31.43650, 0.1830440
31.45120, 56.08624
31.46591, 31.74384
31.48061, 2.293274
31.49531, 26.85687
31.51001, 30.76178
31.52472, 17.21497
31.53942, 21.72656
31.55412, 28.56946
31.56882, 21.41736
31.58353, 21.58539
31.59823, 16.31421
31.61293, 23.64423
31.62764, 39.56836
31.64234, 40.39551
31.65704, 36.55072
31.67174, 31.69073
31.68645, 27.24805
31.70115, 18.04388
31.71585, 9.465576
31.73055, 7.832397
31.74526, 9.725708
31.75996, 33.04724
31.77466, 1.630859
31.78937, 43.04004
31.80407, 36.40656
31.81877, 8.003174
31.83347, 13.22021
31.84818, 7.692200
31.86288, 54.80090
31.87758, 5.906738
31.89228, 4.156860
31.90699, 41.39893
31.92169, 33.31042
31.93639, 65.88660
31.95110, 24.13672
31.96580, 37.60876
31.98050, 57.08167
31.99520, 75.09424
32.00991, 63.88928
32.02461, 67.87622
32.03931, 64.02319
32.05401, 61.48730
32.06872, 76.61938
32.08342, 98.29968
32.09812, 78.15234
32.11283, 27.26343
32.12753, 22.87256
32.14223, 62.01001
32.15693, 87.62683
32.17164, 4.836792
32.18634, 47.22534
32.20104, 54.20850
32.21574, 103.4525
32.23045, 122.0691
32.24515, 215.9163
32.25985, 161.4398
32.27456, 149.1075
32.28926, 199.9866
32.30396, 258.0612
32.31866, 284.6595
32.33337, 280.4980
32.34807, 361.5084
32.36277, 477.7007
32.37747, 442.7225
32.39218, 455.4951
32.40688, 417.0707
32.42158, 374.7831
32.43629, 357.7085
32.45099, 314.7717
32.46569, 285.1750
32.48039, 256.7593
32.49510, 225.9579
32.50980, 238.4366
32.52450, 163.1365
32.53920, 146.5723
32.55391, 99.79993
32.56861, 81.54675
32.58331, 74.76172
32.59802, 110.8778
32.61272, 85.49048
32.62742, 30.86243
32.64212, 47.81885
32.65683, 32.91016
32.67153, 41.55078
32.68623, 21.96191
32.70093, 64.32214
32.71564, 10.74377
32.73034, 35.22131
32.74504, 41.23413
32.75975, 11.48230
32.77445, 102.8538
32.78915, 114.4965
32.80385, 145.6985
32.81856, 115.8210
32.83326, 157.3461
32.84796, 142.8464
32.86266, 140.8198
32.87737, 189.0332
32.89207, 173.0024
32.90677, 233.0500
32.92148, 234.3534
32.93618, 331.7070
32.95088, 411.7366
32.96558, 489.7006
32.98029, 699.7209
32.99499, 953.4921
33.00969, 1451.285
33.02439, 2204.305
33.03910, 3405.505
33.05380, 4390.453
33.06850, 4139.075
33.08321, 3239.837
33.09791, 2659.946
33.11261, 2411.657
33.12731, 2653.453
33.14202, 2963.254
33.15672, 2477.668
33.17142, 1853.694
33.18612, 1316.163
33.20083, 1017.581
33.21553, 808.9407
33.23023, 677.1445
33.24494, 595.9580
33.25964, 547.9269
33.27434, 453.4805
33.28904, 365.5256
33.30375, 382.5818
33.31845, 400.3425
33.33315, 327.9843
33.34785, 347.3011
33.36256, 402.2178
33.37726, 403.1461
33.39196, 342.8505
33.40667, 353.5431
33.42137, 338.2915
33.43607, 389.0507
33.45077, 399.3138
33.46548, 398.2626
33.48018, 455.7828
33.49488, 492.3500
33.50958, 556.2025
33.52429, 639.6075
33.53899, 734.8429
33.55369, 883.7622
33.56840, 1187.160
33.58310, 1557.912
33.59780, 2191.282
33.61250, 3313.511
33.62721, 4538.846
33.64191, 5441.605
33.65661, 5143.135
33.67131, 3960.208
33.68602, 3284.930
33.70072, 3180.553
33.71542, 3297.703
33.73013, 3405.126
33.74483, 2968.021
33.75953, 2234.021
33.77423, 1618.491
33.78894, 1283.331
33.80364, 1035.521
33.81834, 819.0350
33.83304, 718.5554
33.84775, 693.6091
33.86245, 602.6614
33.87715, 520.7019
33.89186, 519.2894
33.90656, 464.0782
33.92126, 408.6437
33.93596, 394.3041
33.95067, 448.2294
33.96537, 500.8387
33.98007, 515.3687
33.99477, 577.8186
34.00948, 582.9885
34.02418, 616.9148
34.03888, 764.0602
34.05358, 795.3259
34.06829, 1049.296
34.08299, 1356.755
34.09769, 1824.205
34.11240, 2607.280
34.12710, 3965.392
34.14180, 5709.650
34.15650, 7526.445
34.17121, 7222.290
34.18591, 5828.612
34.20061, 4667.713
34.21531, 4161.426
34.23002, 4528.776
34.24472, 4810.385
34.25942, 4403.201
34.27413, 3291.693
34.28883, 2475.369
34.30353, 1845.224
34.31823, 1373.065
34.33294, 1131.603
34.34764, 954.9824
34.36234, 805.9580
34.37704, 639.9915
34.39175, 614.6362
34.40645, 523.1448
34.42115, 436.6508
34.43586, 444.8564
34.45056, 340.4974
34.46526, 329.5765
34.47996, 327.5094
34.49467, 300.0616
34.50937, 238.7745
34.52407, 265.1669
34.53877, 201.0786
34.55348, 218.3536
34.56818, 179.9735
34.58288, 92.54443
34.59759, 154.3395
34.61229, 135.3505
34.62699, 138.1976
34.64169, 32.44519
34.65640, 97.74658
34.67110, 116.5361
34.68580, 137.0132
34.70050, 99.31311
34.71521, 65.27893
34.72991, 40.09058
34.74461, 7.874878
34.75932, 54.38318
34.77402, 23.50928
34.78872, 76.52600
34.80342, 30.00977
34.81813, 30.31714
34.83283, 93.67334
34.84753, 86.03503
34.86223, 58.37122
34.87694, 91.07996
34.89164, 86.25232
34.90634, 135.9813
34.92105, 104.6490
34.93575, 173.8634
34.95045, 217.5537
34.96515, 323.7397
34.97986, 499.9617
34.99456, 682.4578
35.00926, 1054.122
35.02396, 1612.310
35.03867, 2240.309
35.05337, 2489.295
35.06807, 2073.772
35.08278, 1564.627
35.09748, 1297.328
35.11218, 1291.809
35.12688, 1575.706
35.14159, 1544.880
35.15629, 1340.261
35.17099, 960.5483
35.18569, 669.6851
35.20040, 482.1232
35.21510, 438.3606
35.22980, 289.1489
35.24451, 279.5387
35.25921, 210.7230
35.27391, 174.7509
35.28861, 152.4772
35.30332, 123.6570
35.31802, 160.5887
35.33272, 117.4598
35.34742, 122.7318
35.36213, 76.42102
35.37683, 122.0105
35.39153, 132.6338
35.40624, 104.0270
35.42094, 134.8403
35.43564, 88.60962
35.45034, 60.01953
35.46505, 74.33008
35.47975, 46.05444
35.49445, 100.1946
35.50915, 95.01331
35.52386, 34.10669
35.53856, 10.89368
35.55326, 4.117188
35.56797, 74.64026
35.58267, 46.39368
35.59737, 70.36194
35.61207, 61.35828
35.62678, 22.31689
35.64148, 7.578247
35.65618, 2.943970
35.67088, 5.523315
35.68559, 9.301147
35.70029, 62.77496
35.71499, 0.4157710
35.72970, 28.83582
35.74440, 1.693359
35.75910, 7.038452
35.77380, 29.06226
35.78851, 43.14868
35.80321, 58.69824
35.81791, 75.78369
35.83261, 74.40686
35.84732, 43.22778
35.86202, 77.33362
35.87672, 80.12891
35.89143, 43.84351
35.90613, 51.94312
35.92083, 49.36108
35.93553, 50.12439
35.95024, 49.18286
35.96494, 73.32544
35.97964, 52.43054
35.99434, 21.98669
36.00905, 33.38110
36.02375, 62.19958
36.03845, 31.93518
36.05316, 24.85205
36.06786, 26.76782
36.08256, 35.19678
36.09726, 29.99976
36.11197, 3.489258
36.12667, 18.70667
36.14137, 45.62146
36.15607, 30.07599
36.17078, 8.974487
36.18548, 32.47534
36.20018, 15.97913
36.21489, 8.438232
36.22959, 22.60767
36.24429, 10.91260
36.25899, 24.44305
36.27370, 10.53943
36.28840, 43.70239
36.30310, 13.95789
36.31780, 16.27515
36.33251, 7.878784
36.34721, 14.22034
36.36191, 9.348755
36.37662, 5.614258
36.39132, 4.318481
36.40602, 23.13159
36.42072, 21.40015
36.43543, 32.98853
36.45013, 54.80786
36.46483, 43.79297
36.47953, 15.34509
36.49424, 35.27307
36.50894, 55.92310
36.52364, 39.01428
36.53835, 51.84375
36.55305, 122.6055
36.56775, 99.99915
36.58245, 121.6146
36.59716, 117.0253
36.61186, 189.2175
36.62656, 280.4316
36.64126, 319.0565
36.65597, 459.4191
36.67067, 660.3984
36.68537, 909.8727
36.70008, 989.6678
36.71478, 846.1324
36.72948, 620.5780
36.74418, 574.7849
36.75889, 483.0417
36.77359, 513.1200
36.78829, 621.1150
36.80299, 568.6537
36.81770, 407.5096
36.83240, 282.4520
36.84710, 160.5708
36.86181, 131.9868
36.87651, 175.4189
36.89121, 126.7565
36.90591, 125.7703
36.92062, 143.9902
36.93532, 103.8943
36.95002, 157.0942
36.96472, 207.7204
36.97943, 169.2043
36.99413, 259.5911
37.00883, 376.6099
37.02354, 588.7704
37.03824, 762.5319
37.05294, 980.6177
37.06764, 1044.773
37.08235, 823.6230
37.09705, 641.6212
37.11175, 574.0698
37.12645, 557.4042
37.14116, 563.0980
37.15586, 569.8762
37.17056, 537.1589
37.18526, 452.0582
37.19997, 301.8367
37.21467, 265.3864
37.22937, 208.7883
37.24408, 87.75067
37.25878, 76.72821
37.27348, 92.56140
37.28818, 110.7228
37.30289, 72.09259
37.31759, 36.03473
37.33229, 28.45892
37.34699, 2.099426
37.36170, 3.024780
37.37640, 28.35529
37.39110, 44.15100
37.40581, 21.11243
37.42051, 64.44153
37.43521, 66.48669
37.44991, 0.4587400
37.46462, 16.90399
37.47932, 15.03577
37.49402, 16.44873
37.50872, 12.57532
37.52343, 23.44391
37.53813, 68.65405
37.55283, 25.39722
37.56754, 0.7894290
37.58224, 31.75854
37.59694, 1.370117
37.61164, 65.57568
37.62635, 80.45892
37.64105, 82.76459
37.65575, 20.35278
37.67045, 56.16638
37.68516, 60.54645
37.69986, 57.08179
37.71456, 17.29901
37.72927, 45.11835
37.74397, 93.82031
37.75867, 106.4545
37.77337, 166.9615
37.78808, 297.4152
37.80278, 415.7114
37.81748, 558.0610
37.83218, 614.0477
37.84689, 437.9790
37.86159, 316.9556
37.87629, 281.1078
37.89100, 297.2538
37.90570, 315.8231
37.92040, 277.0708
37.93510, 320.1212
37.94981, 226.6414
37.96451, 159.0731
37.97921, 109.7756
37.99391, 103.8754
38.00862, 70.55322
38.02332, 25.62659
38.03802, 71.71252
38.05273, 96.78406
38.06743, 36.25452
38.08213, 69.24023
38.09683, 33.53113
38.11154, 46.26306
38.12624, 7.557983
38.14094, 78.14819
38.15564, 25.84607
38.17035, 15.58191
38.18505, 0.5070800
38.19975, 11.38721
38.21446, 11.75269
38.22916, 8.442383
38.24386, 0.4646000
38.25856, 16.21747
38.27327, 27.77454
38.28797, 28.81177
38.30267, 19.15430
38.31737, 3.870117
38.33208, 23.61823
38.34678, 41.71338
38.36148, 2.837158
38.37619, 14.30127
38.39089, 24.96887
38.40559, 26.36768
38.42029, 39.49976
38.43500, 38.00684
38.44970, 2.526489
38.46440, 50.83362
38.47910, 24.37671
38.49381, 43.83875
38.50851, 28.09229
38.52321, 46.39087
38.53792, 18.86084
38.55262, 2.190918
38.56732, 47.76086
38.58202, 75.74597
38.59673, 28.72620
38.61143, 40.88171
38.62613, 37.01379
38.64083, 37.44788
38.65554, 91.57642
38.67024, 62.37939
38.68494, 32.22253
38.69965, 51.02197
38.71435, 59.09680
38.72905, 67.51990
38.74375, 77.33264
38.75846, 106.2644
38.77316, 125.7798
38.78786, 132.4386
38.80256, 183.8137
38.81727, 204.9270
38.83197, 227.3889
38.84667, 297.6244
38.86138, 339.5302
38.87608, 406.9012
38.89078, 439.1360
38.90548, 440.4381
38.92019, 465.0098
38.93489, 525.0658
38.94959, 615.4905
38.96429, 729.4807
38.97900, 983.9521
38.99370, 1255.704
39.00840, 1758.985
39.02311, 2575.714
39.03781, 3669.235
39.05251, 4685.078
39.06721, 4373.404
39.08192, 3396.260
39.09662, 2631.123
39.11132, 2370.638
39.12602, 2534.492
39.14073, 2824.975
39.15543, 2937.315
39.17013, 2631.533
39.18484, 1982.556
39.19954, 1458.744
39.21424, 1254.048
39.22894, 1051.740
39.24365, 920.0433
39.25835, 747.0691
39.27305, 733.5557
39.28775, 580.4131
39.30246, 561.7852
39.31716, 485.4155
39.33186, 407.9548
39.34657, 349.5171
39.36127, 321.8748
39.37597, 311.7416
39.39067, 321.1450
39.40538, 263.7507
39.42008, 297.9962
39.43478, 289.1505
39.44948, 236.7997
39.46419, 302.0922
39.47889, 280.4208
39.49359, 289.9346
39.50830, 197.8254
39.52300, 240.8687
39.53770, 292.1925
39.55240, 251.3464
39.56711, 248.6904
39.58181, 265.0475
39.59651, 240.1278
39.61121, 279.2491
39.62592, 403.5026
39.64062, 414.6506
39.65532, 509.2948
39.67003, 480.4430
39.68473, 420.9807
39.69943, 392.2357
39.71413, 286.2244
39.72884, 316.7539
39.74354, 364.1602
39.75824, 358.2031
39.77294, 331.9596
39.78765, 299.5682
39.80235, 262.2988
39.81705, 313.7313
39.83176, 234.3253
39.84646, 298.6893
39.86116, 267.3883
39.87586, 289.1270
39.89057, 365.8895
39.90527, 473.3837
39.91997, 527.7471
39.93467, 826.6677
39.94938, 1124.758
39.96408, 1691.788
39.97878, 2354.476
39.99349, 2696.705
40.00819, 2427.805
40.02289, 1859.390
40.03759, 1489.157
40.05230, 1348.604
40.06700, 1335.010
40.08170, 1526.390
40.09640, 1570.906
40.11111, 1398.944
40.12581, 1125.951
40.14051, 793.8618
40.15521, 568.5947
40.16992, 544.7133
40.18462, 388.6447
40.19932, 343.5763
40.21403, 344.9324
40.22873, 283.6892
40.24343, 232.4337
40.25813, 290.4707
40.27284, 291.3695
40.28754, 307.4336
40.30224, 404.4453
40.31694, 480.9243
40.33165, 468.8035
40.34635, 713.4161
40.36105, 952.7404
40.37576, 1144.938
40.39046, 1021.895
40.40516, 775.7654
40.41986, 651.1774
40.43457, 640.5504
40.44927, 640.0907
40.46397, 677.7552
40.47867, 681.0391
40.49338, 584.0387
40.50808, 551.6462
40.52278, 346.1633
40.53749, 251.6273
40.55219, 217.9539
40.56689, 174.8843
40.58159, 216.7893
40.59630, 151.1803
40.61100, 112.3369
40.62570, 119.4523
40.64040, 124.0464
40.65511, 77.87244
40.66981, 131.6882
40.68451, 37.80676
40.69922, 38.52502
40.71392, 42.32678
40.72862, 65.55371
40.74332, 23.46228
40.75803, 24.09607
40.77273, 1.719727
40.78743, 13.78162
40.80213, 66.88525
40.81684, 67.82471
40.83154, 17.19104
40.84624, 7.079590
40.86095, 30.84875
40.87565, 57.12354
40.89035, 43.31653
40.90505, 30.08569
40.91976, 25.35657
40.93446, 74.45752
40.94916, 12.45422
40.96386, 6.227051
40.97857, 14.21472
40.99327, 39.03650
41.00797, 45.76770
41.02268, 88.44470
41.03738, 65.17981
41.05208, 16.49512
41.06678, 6.136353
41.08149, 8.268677
41.09619, 2.997192
41.11089, 52.03638
41.12559, 0.7070310
41.14030, 50.64099
41.15500, 21.18359
41.16970, 4.233154
41.18441, 22.43726
41.19911, 27.76660
41.21381, 49.18756
41.22851, 36.47955
41.24322, 54.20422
41.25792, 4.458008
41.27262, 5.763550
41.28732, 4.316284
41.30203, 47.68896
41.31673, 57.71826
41.33143, 60.73279
41.34614, 28.20557
41.36084, 43.48730
41.37554, 101.8022
41.39024, 40.74304
41.40495, 23.73877
41.41965, 40.55383
41.43435, 55.06189
41.44905, 41.08118
41.46376, 63.28455
41.47846, 7.028076
41.49316, 80.85168
41.50787, 20.25220
41.52257, 7.342773
41.53727, 31.81519
41.55197, 37.26855
41.56668, 5.071289
41.58138, 10.21912
41.59608, 47.78503
41.61078, 17.05615
41.62549, 23.47241
41.64019, 55.59082
41.65489, 49.09106
41.66960, 33.37500
41.68430, 40.59375
41.69900, 68.15747
41.71370, 74.87976
41.72841, 61.29102
41.74311, 40.06116
41.75781, 60.27490
41.77251, 8.987671
41.78722, 71.24109
41.80192, 36.93347
41.81662, 32.97729
41.83133, 41.53052
41.84603, 23.82495
41.86073, 58.24353
41.87543, 15.32361
41.89014, 13.02417
41.90484, 43.51648
41.91954, 52.54565
41.93424, 61.26697
41.94895, 13.45105
41.96365, 12.41797
41.97835, 3.512085
41.99306, 28.47473
42.00776, 109.6733
42.02246, 45.18372
42.03716, 18.29810
42.05187, 60.31897
42.06657, 94.61560
42.08127, 37.35938
42.09597, 59.03711
42.11068, 69.66028
42.12538, 78.61938
42.14008, 64.61108
42.15479, 87.91052
42.16949, 56.38879
42.18419, 98.80737
42.19889, 134.0100
42.21360, 130.0853
42.22830, 73.21130
42.24300, 139.2920
42.25770, 193.1195
42.27241, 155.0236
42.28711, 180.8594
42.30181, 190.6057
42.31652, 173.9968
42.33122, 173.7158
42.34592, 203.9012
42.36062, 176.1663
42.37533, 195.8900
42.39003, 150.3174
42.40473, 195.4534
42.41943, 205.9050
42.43414, 199.1345
42.44884, 199.8224
42.46354, 203.6681
42.47825, 221.4083
42.49295, 222.2942
42.50765, 267.8805
42.52235, 277.9725
42.53706, 387.3278
42.55176, 394.5299
42.56646, 398.1375
42.58116, 406.0215
42.59587, 396.9634
42.61057, 326.5842
42.62527, 416.9873
42.63998, 431.6610
42.65468, 453.8414
42.66938, 420.7744
42.68408, 508.2670
42.69879, 653.0831
42.71349, 819.1852
42.72819, 1022.517
42.74289, 1446.143
42.75760, 1782.061
42.77230, 1880.214
42.78700, 1741.708
42.80171, 1353.841
42.81641, 1149.514
42.83111, 1073.615
42.84581, 1059.551
42.86052, 1257.137
42.87522, 1396.667
42.88992, 1307.352
42.90462, 1194.596
42.91933, 1132.383
42.93403, 1174.391
42.94873, 1363.646
42.96344, 1691.364
42.97814, 1890.418
42.99284, 2005.245
43.00754, 1853.727
43.02225, 1563.510
43.03695, 1405.141
43.05165, 1430.647
43.06635, 1518.714
43.08106, 1797.481
43.09576, 2203.353
43.11046, 2407.306
43.12516, 2357.627
43.13987, 2245.731
43.15457, 1753.217
43.16927, 1495.758
43.18398, 1231.163
43.19868, 1185.243
43.21338, 1205.370
43.22808, 1263.175
43.24279, 1236.266
43.25749, 1142.716
43.27219, 860.8258
43.28689, 709.3282
43.30160, 667.6011
43.31630, 600.0747
43.33100, 550.7203
43.34571, 440.1809
43.36041, 393.5638
43.37511, 388.2936
43.38981, 371.3945
43.40452, 365.4226
43.41922, 290.1626
43.43392, 250.3538
43.44862, 293.8640
43.46333, 213.4380
43.47803, 243.5781
43.49273, 279.6183
43.50744, 190.6774
43.52214, 166.4954
43.53684, 194.4111
43.55154, 126.1052
43.56625, 176.8949
43.58095, 189.2526
43.59565, 138.6393
43.61035, 144.4849
43.62506, 135.4425
43.63976, 143.5530
43.65446, 174.7922
43.66917, 160.2324
43.68387, 117.2094
43.69857, 173.5001
43.71327, 190.6948
43.72798, 163.7902
43.74268, 136.5814
43.75738, 140.1674
43.77208, 170.7701
43.78679, 136.2635
43.80149, 92.60681
43.81619, 49.42578
43.83090, 59.50549
43.84560, 68.28076
43.86030, 20.58899
43.87500, 91.17273
43.88971, 76.04932
43.90441, 65.53552
43.91911, 41.98926
43.93381, 5.280640
43.94852, 54.07751
43.96322, 28.86804
43.97792, 40.82117
43.99263, 63.78369
44.00733, 50.13721
44.02203, 48.42310
44.03673, 39.83411
44.05144, 67.65234
44.06614, 55.02051
44.08084, 43.55249
44.09554, 53.06580
44.11025, 56.26892
44.12495, 40.65564
44.13965, 67.57092
44.15436, 80.02209
44.16906, 44.76587
44.18376, 40.00818
44.19846, 25.04517
44.21317, 57.57568
44.22787, 26.71008
44.24257, 6.187744
44.25727, 3.661621
44.27198, 10.54578
44.28668, 12.50500
44.30138, 0.7613530
44.31609, 53.02612
44.33079, 5.631348
44.34549, 60.44653
44.36019, 46.97351
44.37490, 40.56726
44.38960, 49.61353
44.40430, 49.23230
44.41900, 33.76794
44.43371, 83.48999
44.44841, 22.72766
44.46311, 7.212036
44.47782, 63.32556
44.49252, 78.48694
44.50722, 102.9547
44.52192, 73.46814
44.53663, 65.32520
44.55133, 6.461182
44.56603, 30.67590
44.58073, 30.86511
44.59544, 44.14478
44.61014, 21.79871
44.62484, 9.221436
44.63955, 1.794678
44.65425, 34.63464
44.66895, 35.98340
44.68365, 38.36377
44.69836, 5.117310
44.71306, 14.49707
44.72776, 55.92505
44.74246, 12.55493
44.75717, 35.56470
44.77187, 82.90063
44.78657, 30.32446
44.80128, 13.20007
44.81598, 8.349609
44.83068, 9.947876
44.84538, 59.93018
44.86009, 45.03442
44.87479, 24.53357
44.88949, 8.841431
44.90419, 72.38757
44.91890, 60.26233
44.93360, 20.92834
44.94830, 23.21313
44.96301, 36.20886
44.97771, 23.46021
44.99241, 29.41101
45.00711, 67.17566
45.02182, 12.82654
45.03652, 22.56494
45.05122, 68.77112
45.06592, 103.3058
45.08063, 56.47302
45.09533, 53.80566
45.11003, 56.14368
45.12474, 87.35559
45.13944, 62.12708
45.15414, 90.09814
45.16884, 91.45862
45.18355, 170.1047
45.19825, 252.6284
45.21295, 274.0977
45.22765, 217.5753
45.24236, 168.4244
45.25706, 166.3060
45.27176, 153.3416
45.28647, 142.2861
45.30117, 171.2524
45.31587, 220.7443
45.33057, 117.8069
45.34528, 125.6150
45.35998, 83.32874
45.37468, 123.3467
45.38938, 147.3306
45.40409, 129.6296
45.41879, 87.16357
45.43349, 1.599731
45.44820, 55.77173
45.46290, 112.6942
45.47760, 76.21045
45.49230, 127.7140
45.50701, 74.03845
45.52171, 73.75952
45.53641, 79.61511
45.55111, 84.47815
45.56582, 104.4650
45.58052, 107.0432
45.59522, 166.0281
45.60993, 208.0164
45.62463, 291.2845
45.63933, 452.4060
45.65403, 562.3723
45.66874, 730.7821
45.68344, 805.6652
45.69814, 678.4794
45.71284, 514.3248
45.72755, 364.6464
45.74225, 394.5013
45.75695, 397.7358
45.77166, 455.8149
45.78636, 554.8390
45.80106, 573.3315
45.81576, 497.1267
45.83047, 455.4814
45.84517, 332.4006
45.85987, 294.9365
45.87457, 398.7439
45.88928, 502.2440
45.90398, 532.4028
45.91868, 659.9894
45.93339, 941.8817
45.94809, 1147.005
45.96279, 1201.787
45.97749, 1011.303
45.99220, 778.7997
46.00690, 648.8741
46.02160, 479.0930
46.03630, 522.2274
46.05101, 555.1213
46.06571, 683.6445
46.08041, 730.4630
46.09511, 633.6819
46.10982, 473.8578
46.12452, 351.2161
46.13922, 264.3282
46.15393, 266.1024
46.16863, 137.1652
46.18333, 139.7338
46.19803, 158.6069
46.21274, 75.57251
46.22744, 125.6354
46.24214, 80.77466
46.25684, 75.20557
46.27155, 90.05432
46.28625, 54.40186
46.30095, 69.41626
46.31566, 60.58972
46.33036, 40.04333
46.34506, 30.63513
46.35976, 50.07129
46.37447, 106.6884
46.38917, 30.83020
46.40387, 41.88367
46.41857, 38.96960
46.43328, 65.45068
46.44798, 55.23962
46.46268, 18.06189
46.47739, 34.78821
46.49209, 51.63916
46.50679, 50.08911
46.52149, 40.62183
46.53620, 26.66089
46.55090, 38.75940
46.56560, 52.18738
46.58030, 21.52734
46.59501, 52.02625
46.60971, 22.02759
46.62441, 31.23694
46.63912, 26.16040
46.65382, 2.981934
46.66852, 4.098633
46.68322, 62.45142
46.69793, 52.45337
46.71263, 13.65918
46.72733, 62.39258
46.74203, 35.79956
46.75674, 0.8629150
46.77144, 8.745728
46.78614, 8.316284
46.80085, 79.78967
46.81555, 27.73474
46.83025, 18.16553
46.84495, 14.80420
46.85966, 5.341797
46.87436, 7.633667
46.88906, 22.86890
46.90376, 27.16711
46.91847, 52.49634
46.93317, 46.90723
46.94787, 11.07898
46.96258, 17.15491
46.97728, 23.82239
46.99198, 65.45776
47.00668, 12.05908
47.02139, 53.56140
47.03609, 52.70459
47.05079, 82.70190
47.06549, 42.52209
47.08020, 47.36426
47.09490, 37.34851
47.10960, 42.28870
47.12431, 97.26501
47.13901, 55.10437
47.15371, 86.40466
47.16841, 71.93909
47.18312, 25.11267
47.19782, 75.23340
47.21252, 74.31506
47.22722, 131.9341
47.24193, 167.0374
47.25663, 220.0859
47.27133, 349.2108
47.28604, 438.0349
47.30074, 469.8322
47.31544, 440.3088
47.33014, 395.4430
47.34485, 295.6166
47.35955, 247.4075
47.37425, 144.0879
47.38895, 179.4518
47.40366, 333.6521
47.41836, 365.7640
47.43306, 301.0935
47.44777, 371.4095
47.46247, 246.4054
47.47717, 186.2533
47.49187, 150.4741
47.50658, 173.4869
47.52128, 153.4014
47.53598, 160.2678
47.55068, 178.2944
47.56539, 203.9192
47.58009, 197.9640
47.59479, 164.0160
47.60950, 172.4240
47.62420, 233.8007
47.63890, 193.0410
47.65360, 272.7451
47.66831, 295.8225
47.68301, 318.5299
47.69771, 395.3000
47.71241, 413.5208
47.72712, 569.9493
47.74182, 580.1721
47.75652, 676.3699
47.77123, 714.7744
47.78593, 845.0409
47.80063, 992.6035
47.81533, 1232.622
47.83004, 1335.592
47.84474, 1145.496
47.85944, 930.0208
47.87414, 740.5570
47.88885, 642.4880
47.90355, 586.1809
47.91825, 614.4025
47.93296, 697.8656
47.94766, 707.0735
47.96236, 652.1455
47.97706, 568.4918
47.99177, 337.9287
48.00647, 261.1925
48.02117, 208.1730
48.03587, 221.2222
48.05058, 200.4281
48.06528, 145.3779
48.07998, 132.0581
48.09469, 133.0198
48.10939, 103.7633
48.12409, 138.9916
48.13879, 118.6406
48.15350, 194.3837
48.16820, 151.7458
48.18290, 134.1948
48.19760, 111.3899
48.21231, 131.5428
48.22701, 146.6066
48.24171, 134.4242
48.25642, 128.9906
48.27112, 146.2025
48.28582, 164.2754
48.30052, 155.5953
48.31523, 194.9370
48.32993, 215.3794
48.34463, 220.9137
48.35933, 302.7853
48.37404, 432.6102
48.38874, 632.1681
48.40344, 863.1099
48.41815, 1069.480
48.43285, 1477.640
48.44755, 1908.353
48.46225, 2116.982
48.47696, 1790.020
48.49166, 1370.637
48.50636, 1061.888
48.52106, 1041.765
48.53577, 1070.150
48.55047, 1078.294
48.56517, 1189.454
48.57988, 1365.554
48.59458, 1220.535
48.60928, 1074.193
48.62398, 786.2739
48.63869, 714.9938
48.65339, 667.6743
48.66809, 625.5973
48.68279, 515.9266
48.69750, 445.0857
48.71220, 499.7721
48.72690, 538.7623
48.74161, 543.7588
48.75631, 540.3142
48.77101, 686.0621
48.78571, 868.6758
48.80042, 1016.247
48.81512, 912.7321
48.82982, 801.1956
48.84452, 670.9532
48.85923, 526.1293
48.87393, 533.5404
48.88863, 482.8899
48.90334, 514.3136
48.91804, 615.0288
48.93274, 541.3280
48.94744, 518.0239
48.96215, 466.8751
48.97685, 387.7145
48.99155, 247.9550
49.00625, 195.4641
49.02096, 186.0160
49.03566, 184.9364
49.05036, 178.7230
49.06507, 125.9534
49.07977, 150.7285
49.09447, 109.3767
49.10917, 104.7668
49.12388, 31.70605
49.13858, 93.47913
49.15328, 60.41406
49.16798, 28.52808
49.18269, 32.88208
49.19739, 56.25330
49.21209, 23.33960
49.22679, 12.69336
49.24150, 39.76562
49.25620, 12.75708
49.27090, 8.920776
49.28561, 32.51160
49.30031, 45.08813
49.31501, 7.272949
49.32971, 31.62634
49.34442, 15.12451
49.35912, 42.69421
49.37382, 60.52722
49.38852, 63.98474
49.40323, 2.831665
49.41793, 7.955200
49.43263, 56.52319
49.44734, 15.63501
49.46204, 56.06396
49.47674, 8.533081
49.49144, 9.335449
49.50615, 46.29028
49.52085, 63.04053
49.53555, 13.61328
49.55025, 15.08777
49.56496, 5.804443
49.57966, 70.25208
49.59436, 21.59021
49.60907, 22.99023
49.62377, 16.07129
49.63847, 88.68225
49.65317, 63.73035
49.66788, 52.61084
49.68258, 20.55200
49.69728, 51.12378
49.71198, 35.01990
49.72669, 21.77185
49.74139, 190.8313
49.75609, 165.4973
49.77080, 65.45300
49.78550, 115.4485
49.80020, 44.84338
49.81490, 2.920898
49.82961, 21.48596
49.84431, 38.64600
49.85901, 33.69836
49.87371, 38.44446
49.88842, 33.23328
49.90312, 37.72986
49.91782, 3.933228
49.93253, 39.99207
49.94723, 7.881104
49.96193, 66.56067
49.97663, 20.61633
49.99134, 77.89294
50.00604, 27.38623
50.02074, 36.39624
50.03544, 7.224243
50.05015, 0.7463380
50.06485, 59.44727
50.07955, 23.39307
50.09426, 77.97424
50.10896, 36.11792
50.12366, 25.13184
50.13836, 9.370117
50.15307, 80.36218
50.16777, 58.97900
50.18247, 33.70569
50.19717, 44.44556
50.21188, 141.1473
50.22658, 158.2780
50.24128, 130.7563
50.25599, 200.8627
50.27069, 419.1064
50.28539, 375.4690
50.30009, 489.6094
50.31480, 755.5297
50.32950, 1005.240
50.34420, 1045.816
50.35890, 942.2665
50.37361, 806.5961
50.38831, 663.6366
50.40301, 551.7948
50.41772, 544.4597
50.43242, 566.9536
50.44712, 545.3152
50.46182, 590.7108
50.47653, 650.7732
50.49123, 664.4403
50.50593, 637.0682
50.52063, 575.8274
50.53534, 496.6700
50.55004, 507.3478
50.56474, 598.4722
50.57945, 875.1915
50.59415, 948.6936
50.60885, 944.7292
50.62355, 930.5511
50.63826, 926.2245
50.65296, 883.4188
50.66766, 871.3119
50.68236, 748.5388
50.69707, 782.1128
50.71177, 748.7173
50.72647, 866.7836
50.74118, 794.0676
50.75588, 809.7224
50.77058, 621.8097
50.78528, 601.3861
50.79999, 596.7941
50.81469, 539.7772
50.82939, 548.2906
50.84409, 497.5126
50.85880, 511.5441
50.87350, 574.5033
50.88820, 554.9459
50.90291, 720.7334
50.91761, 1032.678
50.93231, 1317.250
50.94701, 1636.758
50.96172, 1684.887
50.97642, 1481.195
50.99112, 1147.755
51.00582, 902.7930
51.02053, 754.1741
51.03523, 700.8517
51.04993, 782.1812
51.06464, 931.3054
51.07934, 1120.380
51.09404, 1072.340
51.10874, 1016.767
51.12345, 834.0583
51.13815, 771.6118
51.15285, 668.2804
51.16755, 652.7473
51.18226, 783.7648
51.19696, 898.4382
51.21166, 1148.731
51.22637, 1401.308
51.24107, 1347.036
51.25577, 1101.849
51.27047, 897.0706
51.28518, 810.0956
51.29988, 609.6112
51.31458, 550.2113
51.32928, 589.4923
51.34399, 631.6359
51.35869, 667.8965
51.37339, 690.1893
51.38810, 640.2465
51.40280, 529.6664
51.41750, 429.4218
51.43220, 371.3043
51.44691, 291.0016
51.46161, 285.8560
51.47631, 319.4496
51.49101, 295.5886
51.50572, 203.1395
51.52042, 174.6194
51.53512, 173.1342
51.54983, 161.6819
51.56453, 155.4436
51.57923, 148.9951
51.59393, 152.1644
51.60864, 184.7770
51.62334, 118.8114
51.63804, 161.6677
51.65274, 173.9460
51.66745, 142.8015
51.68215, 182.4708
51.69685, 225.5100
51.71156, 307.9430
51.72626, 381.6191
51.74096, 464.4502
51.75566, 632.3413
51.77037, 793.1493
51.78507, 1037.950
51.79977, 1391.619
51.81447, 1750.155
51.82918, 1738.242
51.84388, 1423.389
51.85858, 1237.008
51.87329, 1040.184
51.88799, 862.7600
51.90269, 815.0018
51.91739, 839.7458
51.93210, 971.3760
51.94680, 1068.552
51.96150, 1140.509
51.97620, 998.8137
51.99091, 870.3638
52.00561, 662.6783
52.02031, 683.9934
52.03502, 636.6514
52.04972, 667.9447
52.06442, 897.9851
52.07912, 1144.481
52.09383, 1423.455
52.10853, 1435.842
52.12323, 1208.116
52.13793, 1050.437
52.15264, 853.4695
52.16734, 700.5667
52.18204, 524.7609
52.19674, 503.5511
52.21145, 593.3597
52.22615, 664.0425
52.24085, 717.7433
52.25556, 720.3872
52.27026, 702.7932
52.28496, 476.1382
52.29966, 333.1681
52.31437, 304.9991
52.32907, 208.4540
52.34377, 177.5580
52.35847, 174.0009
52.37318, 115.0487
52.38788, 64.61548
52.40258, 132.8344
52.41729, 59.12610
52.43199, 93.63770
52.44669, 43.12646
52.46139, 19.99792
52.47610, 43.11743
52.49080, 12.46216
52.50550, 26.27246
52.52020, 9.288940
52.53491, 10.09045
52.54961, 31.02527
52.56431, 7.231079
52.57902, 9.858643
52.59372, 21.17896
52.60842, 24.96570
52.62312, 14.85730
52.63783, 35.71155
52.65253, 17.52307
52.66723, 22.35669
52.68193, 11.53381
52.69664, 2.535522
52.71134, 61.47791
52.72604, 13.37646
52.74075, 42.62073
52.75545, 8.793091
52.77015, 49.17664
52.78485, 28.99597
52.79956, 32.72241
52.81426, 37.69897
52.82896, 2.219238
52.84366, 13.86072
52.85837, 33.06567
52.87307, 36.94531
52.88777, 2.308472
52.90248, 44.02795
52.91718, 35.84436
52.93188, 55.28455
52.94658, 108.7598
52.96129, 199.9375
52.97599, 276.1749
52.99069, 290.2823
53.00539, 328.4507
53.02010, 210.7350
53.03480, 224.0740
53.04950, 153.9548
53.06421, 103.2791
53.07891, 155.0129
53.09361, 166.3025
53.10831, 159.8466
53.12302, 206.9355
53.13772, 215.6095
53.15242, 134.4644
53.16712, 202.3984
53.18183, 146.2975
53.19653, 151.9630
53.21123, 35.65234
53.22594, 44.05603
53.24064, 92.33459
53.25534, 79.02393
53.27004, 57.81799
53.28475, 72.85120
53.29945, 45.40710
53.31415, 45.71143
53.32885, 95.15332
53.34356, 90.83362
53.35826, 63.74939
53.37296, 95.87561
53.38767, 50.71619
53.40237, 104.6013
53.41707, 109.2157
53.43177, 92.96240
53.44648, 92.20471
53.46118, 98.42908
53.47588, 79.27393
53.49058, 72.22888
53.50529, 106.4563
53.51999, 49.00781
53.53469, 45.05786
53.54940, 12.99194
53.56410, 57.54346
53.57880, 73.01343
53.59350, 45.52759
53.60821, 84.03235
53.62291, 32.40991
53.63761, 33.71204
53.65231, 2.377197
53.66702, 73.01221
53.68172, 44.88928
53.69642, 1.857544
53.71113, 74.83813
53.72583, 13.99304
53.74053, 18.20728
53.75523, 56.83960
53.76994, 8.005859
53.78464, 23.70312
53.79934, 16.79919
53.81404, 26.46228
53.82875, 30.13623
53.84345, 92.99536
53.85815, 61.91748
53.87286, 44.20776
53.88756, 69.69202
53.90226, 13.91785
53.91696, 48.97461
53.93167, 2.430176
53.94637, 70.13806
53.96107, 48.04382
53.97577, 10.99768
53.99048, 25.32642
54.00518, 12.01404
54.01988, 9.918579
54.03459, 13.72937
54.04929, 28.42798
54.06399, 12.34851
54.07869, 82.75977
54.09340, 29.89099
54.10810, 107.0781
54.12280, 86.39490
54.13750, 113.0946
54.15221, 125.5632
54.16691, 140.2117
54.18161, 237.9246
54.19632, 362.7292
54.21102, 500.1917
54.22572, 515.6260
54.24042, 506.4109
54.25513, 415.9227
54.26983, 321.9211
54.28453, 279.3339
54.29923, 286.7115
54.31394, 252.1483
54.32864, 282.1626
54.34334, 278.6473
54.35805, 376.3191
54.37275, 345.8068
54.38745, 322.9001
54.40215, 251.4546
54.41686, 187.3180
54.43156, 167.4453
54.44626, 130.8993
54.46096, 123.3630
54.47567, 92.45715
54.49037, 90.84399
54.50507, 21.35339
54.51978, 40.76208
54.53448, 101.5762
54.54918, 104.2433
54.56388, 116.8804
54.57859, 86.08948
54.59329, 56.41443
54.60799, 41.52991
54.62269, 32.49976
54.63740, 75.20300
54.65210, 81.79565
54.66680, 128.3673
54.68151, 123.7719
54.69621, 154.8629
54.71091, 191.5687
54.72561, 376.6294
54.74032, 423.6294
54.75502, 597.9575
54.76972, 867.4189
54.78442, 1041.265
54.79913, 1004.273
54.81383, 880.1533
54.82853, 703.7677
54.84324, 620.6521
54.85794, 538.5695
54.87264, 543.4125
54.88734, 548.4922
54.90205, 569.4609
54.91675, 593.0787
54.93145, 662.0844
54.94615, 646.0356
54.96086, 693.8484
54.97556, 604.5082
54.99026, 596.0511
55.00497, 535.0747
55.01967, 433.0168
55.03437, 452.5472
55.04907, 502.7126
55.06378, 608.0350
55.07848, 579.3040
55.09318, 833.3035
55.10788, 1055.328
55.12259, 1372.526
55.13729, 1515.880
55.15199, 1550.912
55.16669, 1493.379
55.18140, 1257.450
55.19610, 1184.634
55.21080, 1213.517
55.22551, 1244.473
55.24021, 1439.801
55.25491, 1627.413
55.26961, 1612.499
55.28432, 1601.803
55.29902, 1535.469
55.31372, 1426.667
55.32842, 1373.717
55.34313, 1365.629
55.35783, 1425.626
55.37253, 1682.891
55.38724, 1955.824
55.40194, 2416.175
55.41664, 3222.279
55.43134, 3801.062
55.44605, 3927.297
55.46075, 3435.878
55.47545, 2891.437
55.49015, 2318.651
55.50486, 1899.800
55.51956, 1773.539
55.53426, 1724.742
55.54897, 1778.555
55.56367, 1952.835
55.57837, 2198.572
55.59307, 2353.776
55.60778, 2043.584
55.62248, 1692.716
55.63718, 1414.674
55.65188, 1127.744
55.66659, 901.8663
55.68129, 776.3971
55.69599, 591.8790
55.71070, 555.3052
55.72540, 556.9192
55.74010, 483.7050
55.75480, 491.8953
55.76951, 480.2803
55.78421, 372.5449
55.79891, 282.4634
55.81361, 282.8119
55.82832, 235.7789
55.84302, 241.7186
55.85772, 148.2538
55.87243, 199.2841
55.88713, 217.3418
55.90183, 144.4192
55.91653, 170.8489
55.93124, 94.37012
55.94594, 153.1312
55.96064, 111.8960
55.97534, 10.63916
55.99005, 37.99487
56.00475, 62.00916
56.01945, 32.80530
56.03416, 50.98364
56.04886, 29.50513
56.06356, 67.45581
56.07826, 91.96106
56.09297, 10.32739
56.10767, 78.89258
56.12237, 49.47180
56.13707, 26.30798
56.15178, 49.52246
56.16648, 32.10876
56.18118, 5.373169
56.19589, 74.46765
56.21059, 54.29236
56.22529, 42.88940
56.23999, 57.20740
56.25470, 8.675659
56.26940, 5.324219
56.28410, 28.47009
56.29880, 48.35754
56.31351, 60.45300
56.32821, 20.14502
56.34291, 6.292236
56.35762, 22.00317
56.37232, 46.48022
56.38702, 20.60242
56.40172, 32.35291
56.41643, 31.34851
56.43113, 3.592773
56.44583, 37.01367
56.46053, 79.38477
56.47524, 23.84375
56.48994, 31.83545
56.50464, 51.70056
56.51935, 23.00269
56.53405, 71.35364
56.54875, 55.85266
56.56345, 9.588135
56.57816, 10.95312
56.59286, 2.292114
56.60756, 52.35352
56.62226, 16.21375
56.63697, 28.72974
56.65167, 9.652344
56.66637, 56.78357
56.68108, 37.57556
56.69578, 81.48950
56.71048, 81.15686
56.72518, 144.6570
56.73989, 37.47205
56.75459, 13.35974
56.76929, 153.9023
56.78399, 126.4658
56.79870, 70.59265
56.81340, 186.4659
56.82810, 180.1807
56.84281, 200.0144
56.85751, 153.8676
56.87221, 100.6090
56.88691, 145.8013
56.90162, 110.6736
56.91632, 136.2014
56.93102, 192.8204
56.94572, 260.6716
56.96043, 247.3931
56.97513, 338.1879
56.98983, 406.4108
57.00454, 537.9338
57.01924, 527.9855
57.03394, 711.6442
57.04864, 995.5000
57.06335, 1334.485
57.07805, 1443.112
57.09275, 1335.131
57.10745, 1097.906
57.12216, 837.8733
57.13686, 673.8982
57.15156, 637.9302
57.16627, 634.9410
57.18097, 593.1211
57.19567, 716.2617
57.21037, 827.7853
57.22508, 931.5018
57.23978, 857.6422
57.25448, 698.3832
57.26918, 584.4093
57.28389, 463.3077
57.29859, 425.9490
57.31329, 344.0543
57.32800, 263.5940
57.34270, 204.0599
57.35740, 178.0178
57.37210, 185.2439
57.38681, 143.9053
57.40151, 123.2068
57.41621, 106.7133
57.43091, 108.0172
57.44562, 100.5194
57.46032, 111.7410
57.47502, 121.0034
57.48973, 87.49231
57.50443, 140.6462
57.51913, 59.71301
57.53383, 106.2170
57.54854, 93.06348
57.56324, 86.84802
57.57794, 42.29968
57.59264, 66.29712
57.60735, 52.14795
57.62205, 74.51465
57.63675, 87.22864
57.65146, 87.88037
57.66616, 4.070679
57.68086, 1.566040
57.69556, 50.78357
57.71027, 34.69092
57.72497, 23.25244
57.73967, 90.82812
57.75437, 33.63367
57.76908, 32.37939
57.78378, 89.06689
57.79848, 58.42053
57.81319, 23.07104
57.82789, 46.75684
57.84259, 12.74744
57.85729, 3.947266
57.87200, 25.58203
57.88670, 4.229614
57.90140, 0.6568600
57.91610, 56.35693
57.93081, 79.15479
57.94551, 81.04944
57.96021, 46.30530
57.97492, 91.80737
57.98962, 15.82446
58.00432, 102.0214
58.01902, 87.04089
58.03373, 4.941406
58.04843, 18.13538
58.06313, 2.169434
58.07783, 37.79761
58.09254, 23.81848
58.10724, 6.493896
58.12194, 60.07019
58.13664, 50.07202
58.15135, 7.045654
58.16605, 2.091431
58.18075, 1.127930
58.19546, 1.420410
58.21016, 66.77600
58.22486, 27.07373
58.23956, 28.86792
58.25427, 47.34070
58.26897, 95.33411
58.28367, 7.482300
58.29837, 100.7323
58.31308, 52.81165
58.32778, 61.80115
58.34248, 41.56616
58.35719, 44.28918
58.37189, 111.6737
58.38659, 58.54041
58.40129, 76.07910
58.41600, 72.38000
58.43070, 13.62109
58.44540, 130.9451
58.46010, 116.3669
58.47481, 46.71863
58.48951, 145.3875
58.50421, 180.4296
58.51892, 194.4609
58.53362, 85.14648
58.54832, 120.2852
58.56302, 237.8651
58.57773, 221.7820
58.59243, 309.0769
58.60713, 378.9779
58.62183, 544.0590
58.63654, 741.3894
58.65124, 902.3965
58.66594, 1079.997
58.68065, 995.4800
58.69535, 964.4663
58.71005, 899.4539
58.72475, 986.2961
58.73946, 994.8030
58.75416, 1238.660
58.76886, 1564.312
58.78356, 1682.081
58.79827, 1755.890
58.81297, 1629.225
58.82767, 1334.150
58.84238, 1236.008
58.85708, 988.3105
58.87178, 881.5717
58.88648, 873.1382
58.90119, 810.5962
58.91589, 950.1965
58.93059, 843.9601
58.94529, 947.7965
58.96000, 831.7542
58.97470, 794.6726
58.98940, 694.0349
59.00411, 587.4258
59.01881, 509.4249
59.03351, 477.7594
59.04821, 363.5454
59.06292, 356.5767
59.07762, 248.8802
59.09232, 308.4735
59.10702, 284.2169
59.12173, 286.5527
59.13643, 200.4633
59.15113, 158.8979
59.16584, 266.7686
59.18054, 197.2535
59.19524, 203.0618
59.20994, 161.7217
59.22465, 171.0311
59.23935, 215.8821
59.25405, 145.8528
59.26875, 116.7030
59.28346, 150.7649
59.29816, 95.08716
59.31286, 160.1232
59.32757, 94.29004
59.34227, 59.11340
59.35697, 135.6067
59.37167, 60.16638
59.38638, 112.1609
59.40108, 51.62830
59.41578, 71.14734
59.43048, 69.05750
59.44519, 80.79688
59.45989, 82.72473
59.47459, 117.4795
59.48930, 68.49719
59.50400, 90.29395
59.51870, 45.16589
59.53340, 54.71460
59.54811, 58.50867
59.56281, 28.12378
59.57751, 13.99902
59.59221, 21.13147
59.60692, 51.09424
59.62162, 46.66870
59.63632, 4.487305
59.65103, 85.94690
59.66573, 47.71277
59.68043, 2.332397
59.69513, 8.874146
59.70984, 9.551758
59.72454, 24.23315
59.73924, 8.330444
59.75394, 85.54297
59.76865, 29.62683
59.78335, 68.63635
59.79805, 36.87036
59.81276, 16.17065
59.82746, 9.673218
59.84216, 5.420776
59.85686, 44.22546
59.87157, 46.31238
59.88627, 35.73865
59.90097, 26.97412
59.91567, 13.04688
59.93038, 78.07178
59.94508, 40.79333
59.95978, 29.42676
59.97449, 9.213257
59.98919, 18.31689
60.00389, 13.67578
60.01859, 2.336548
60.03330, 0.1229250
60.04800, 20.23401
60.06270, 0.9251710
60.07740, 30.23474
60.09211, 60.62097
60.10681, 80.55774
60.12151, 11.26465
60.13622, 9.746582
60.15092, 58.79419
60.16562, 17.94128
60.18032, 24.83911
60.19503, 18.08838
60.20973, 59.33667
60.22443, 34.73145
60.23913, 80.38696
60.25384, 44.85388
60.26854, 23.72559
60.28324, 12.45569
60.29795, 4.446411
60.31265, 27.05188
60.32735, 3.210693
60.34205, 49.21057
60.35676, 92.09070
60.37146, 54.79370
60.38616, 0.5805660
60.40086, 32.42603
60.41557, 83.03320
60.43027, 30.37952
60.44497, 57.34277
60.45968, 147.0463
60.47438, 112.6869
60.48908, 136.7676
60.50378, 88.36047
60.51849, 142.0654
60.53319, 150.5168
60.54789, 113.0325
60.56259, 135.3523
60.57730, 150.7013
60.59200, 199.8944
60.60670, 214.7482
60.62141, 234.7721
60.63611, 284.7561
60.65081, 260.1848
60.66551, 399.5746
60.68022, 368.8821
60.69492, 267.4260
60.70962, 373.4738
60.72432, 508.1324
60.73903, 621.4150
60.75373, 797.2753
60.76843, 1142.805
60.78314, 1162.192
60.79784, 1054.573
60.81254, 833.4355
60.82724, 813.5896
60.84195, 645.8563
60.85665, 560.8156
60.87135, 525.7051
60.88605, 473.8440
60.90076, 503.5120
60.91546, 599.4556
60.93016, 656.8383
60.94487, 788.3599
60.95957, 659.9226
60.97427, 636.1694
60.98897, 419.7881
61.00368, 436.4329
61.01838, 422.2880
61.03308, 319.9741
61.04778, 360.3807
61.06249, 410.4926
61.07719, 327.5055
61.09189, 348.2679
61.10660, 391.7169
61.12130, 407.8505
61.13600, 553.9487
61.15070, 664.1923
61.16541, 912.7356
61.18011, 1218.143
61.19481, 1207.436
61.20951, 1009.728
61.22422, 849.4031
61.23892, 709.0314
61.25362, 546.7634
61.26832, 602.3738
61.28303, 459.7854
61.29773, 603.0190
61.31243, 482.5930
61.32714, 588.8319
61.34184, 726.0750
61.35654, 720.4668
61.37124, 776.4661
61.38595, 705.5508
61.40065, 642.7604
61.41535, 652.4722
61.43005, 578.6467
61.44476, 511.1863
61.45946, 411.5859
61.47416, 351.5468
61.48887, 270.3853
61.50357, 338.1277
61.51827, 242.5266
61.53297, 245.9358
61.54768, 340.7697
61.56238, 296.8827
61.57708, 261.8440
61.59178, 340.5765
61.60649, 297.5593
61.62119, 262.0747
61.63589, 376.5128
61.65060, 288.0947
61.66530, 410.8898
61.68000, 397.0953
61.69470, 640.9725
61.70941, 680.2032
61.72411, 640.1974
61.73881, 572.9366
61.75351, 541.4612
61.76822, 412.3179
61.78292, 392.7990
61.79762, 392.1023
61.81233, 342.8694
61.82703, 299.8986
61.84173, 406.9640
61.85643, 395.9270
61.87114, 348.7819
61.88584, 307.5806
61.90054, 435.2379
61.91524, 340.5454
61.92995, 287.0828
61.94465, 278.7892
61.95935, 201.0083
61.97406, 161.1901
61.98876, 126.8176
62.00346, 85.49207
62.01816, 186.7996
62.03287, 142.0939
62.04757, 167.0795
62.06227, 118.6100
62.07697, 123.5944
62.09168, 35.47180
62.10638, 108.2263
62.12108, 105.8951
62.13579, 61.14490
62.15049, 86.48889
62.16519, 27.21643
62.17989, 86.65417
62.19460, 29.18127
62.20930, 85.20862
62.22400, 41.19238
62.23870, 61.57019
62.25341, 57.87329
62.26811, 28.20374
62.28281, 9.891602
62.29752, 78.58667
62.31222, 31.14990
62.32692, 34.02380
62.34162, 3.869995
62.35633, 26.87268
62.37103, 23.89526
62.38573, 0.5019530
62.40043, 1.733887
62.41514, 50.12427
62.42984, 9.432007
62.44454, 18.96692
62.45925, 19.48389
62.47395, 3.601563
62.48865, 31.86609
62.50335, 34.99548
62.51806, 17.61804
62.53276, 19.06091
62.54746, 32.42981
62.56216, 54.75024
62.57687, 81.07678
62.59157, 1.654419
62.60627, 53.36621
62.62098, 49.43030
62.63568, 78.78113
62.65038, 36.60840
62.66508, 22.30847
62.67979, 107.6953
62.69449, 161.4941
62.70919, 237.8060
62.72389, 239.0693
62.73860, 321.4968
62.75330, 289.1582
62.76800, 274.4951
62.78271, 264.8832
62.79741, 304.6565
62.81211, 405.2914
62.82681, 353.5989
62.84152, 386.3014
62.85622, 308.9543
62.87092, 289.7250
62.88562, 248.2866
62.90033, 261.4985
62.91503, 269.3722
62.92973, 256.1965
62.94444, 191.3647
62.95914, 293.6177
62.97384, 162.4429
62.98854, 273.3633
63.00325, 231.7534
63.01795, 278.9337
63.03265, 175.5260
63.04735, 127.9623
63.06206, 172.7013
63.07676, 126.9291
63.09146, 117.9849
63.10617, 48.67285
63.12087, 139.7577
63.13557, 120.7194
63.15027, 135.0210
63.16498, 151.7236
63.17968, 191.0944
63.19438, 189.0032
63.20908, 273.7026
63.22379, 286.0010
63.23849, 507.1508
63.25319, 514.8354
63.26790, 442.9493
63.28260, 467.4816
63.29730, 348.2394
63.31200, 362.4451
63.32671, 318.3674
63.34141, 254.8525
63.35611, 202.2067
63.37081, 154.1538
63.38552, 199.0765
63.40022, 276.9304
63.41492, 272.4537
63.42963, 388.4104
63.44433, 304.6086
63.45903, 267.1091
63.47373, 234.7145
63.48844, 212.6122
63.50314, 158.8203
63.51784, 150.7538
63.53254, 111.2190
63.54725, 132.2413
63.56195, 63.79309
63.57665, 124.4875
63.59136, 69.81836
63.60606, 4.571167
63.62076, 20.55103
63.63546, 67.35547
63.65017, 130.8575
63.66487, 62.93347
63.67957, 96.15039
63.69427, 39.28430
63.70898, 26.92017
63.72368, 95.45679
63.73838, 67.12573
63.75309, 121.5070
63.76779, 166.6088
63.78249, 252.9330
63.79719, 250.7128
63.81190, 339.2018
63.82660, 270.7139
63.84130, 197.8052
63.85600, 164.2175
63.87071, 117.6407
63.88541, 137.0654
63.90011, 142.2848
63.91482, 116.0669
63.92952, 103.6058
63.94422, 85.04626
63.95892, 136.0262
63.97363, 133.0978
63.98833, 171.2488
64.00303, 256.1998
64.01773, 193.7012
64.03244, 210.7422
64.04714, 174.3431
64.06184, 134.9562
64.07655, 93.06433
64.09125, 94.72974
64.10595, 96.46875
64.12065, 104.1207
64.13536, 107.8081
64.15006, 109.8976
64.16476, 150.0936
64.17946, 134.1556
64.19417, 151.3240
64.20887, 104.4918
64.22357, 101.8149
64.23827, 159.7406
64.25298, 119.2399
64.26768, 159.4503
64.28238, 129.1558
64.29709, 204.6931
64.31179, 121.9355
64.32649, 205.8528
64.34119, 153.2186
64.35590, 140.8209
64.37060, 65.58557
64.38530, 80.95007
64.40000, 130.5758
64.41471, 106.9664
64.42941, 114.6813
64.44411, 50.77026
64.45882, 117.6218
64.47352, 121.7483
64.48822, 99.32983
64.50292, 117.0092
64.51763, 18.49988
64.53233, 104.1226
64.54703, 41.99292
64.56173, 44.74927
64.57644, 84.03662
64.59114, 60.12390
64.60584, 117.1920
64.62055, 35.56189
64.63525, 69.25134
64.64995, 58.26343
64.66465, 57.03235
64.67936, 9.335327
64.69406, 46.48450
64.70876, 1.992310
64.72346, 6.349487
64.73817, 8.534180
64.75287, 141.3199
64.76757, 46.52515
64.78228, 70.35779
64.79698, 46.48804
64.81168, 5.488770
64.82638, 125.0762
64.84109, 22.42151
64.85579, 39.42871
64.87049, 25.22046
64.88519, 45.21863
64.89990, 62.80530
64.91460, 19.59973
64.92930, 0.0000000E+00
##END=



