##NAMES=Chalcosiderite
##RRUFFID=R060007
##IDEAL CHEMISTRY=Cu^2+^Fe^3+^_6_(PO_4_)_4_(OH)_8_&#183;4H_2_O
##LOCALITY=Cerro Negro mine, Carrizalillo, Chile
##OWNER=RRUFF
##SOURCE=William W. Pinch, Bob Jenkins
##DESCRIPTION=Groups of green foliated crystals associated with pseudomalachite, R050597
##DIFFRACTION SAMPLE DESCRIPTION=Powder, using Mo radiation
##STATUS=The identification of this mineral has been confirmed by X-ray diffraction and chemical analysis
##URL=rruff.info/R060007
##MEASURED CHEMISTRY=Cu_1.00_(Fe^3+^_3.69_Al_2.31_)_Σ=6_(P_1.00_O_4_)_4_(OH)_8_·4H_2_O
##CELL PARAMETERS=a: 7.629 b: 7.783 c: 10.031 alpha: 67.554 beta: 68.788 gamma: 64.561 volume: 482.96 crystal system: triclinic
6.520000, 0.0000000E+00
6.550000, 7.4459999E-03
6.580000, 7.776245
6.610000, 17.46457
6.640000, 15.33704
6.670000, 13.96600
6.700000, 14.17688
6.730000, 15.46063
6.760000, 19.81134
6.790000, 22.25510
6.820000, 19.74881
6.850000, 20.26291
6.880000, 22.78674
6.910000, 14.42789
6.940000, 2.867310
6.970000, 1.316803
7.000000, 0.1243900
7.030000, 1.079163
7.060000, 10.82050
7.090000, 17.55914
7.120000, 15.09921
7.150000, 9.289276
7.180000, 2.666718
7.210000, 2.546143
7.240000, 5.920471
7.270000, 3.651581
7.300000, 13.22498
7.330000, 16.30188
7.360000, 11.53751
7.390000, 4.124084
7.420000, 3.665985
7.450000, 4.006012
7.480000, 4.203461
7.510000, 8.271790
7.540000, 10.53357
7.570000, 10.75031
7.600000, 1.714935
7.630000, 0.5805660
7.660000, 3.349152
7.690000, 5.485596
7.720000, 6.132294
7.750000, 11.70193
7.780000, 18.39725
7.810000, 21.81903
7.840000, 26.04318
7.870000, 35.95959
7.900000, 42.12115
7.930000, 37.44290
7.960000, 33.20175
7.990000, 31.80850
8.020000, 35.19220
8.050000, 34.23480
8.080000, 42.35770
8.110000, 38.88626
8.140000, 46.31329
8.170000, 51.30170
8.200000, 53.39630
8.230000, 53.92206
8.260000, 56.99289
8.290000, 57.33173
8.320000, 58.98474
8.350000, 54.28397
8.380000, 43.57703
8.410000, 40.06253
8.440000, 41.91278
8.470000, 43.65021
8.500000, 50.69498
8.530000, 53.78131
8.560000, 58.56189
8.590000, 63.24133
8.620000, 64.58524
8.650000, 62.28586
8.680000, 60.81049
8.710000, 60.85138
8.740000, 67.68988
8.770000, 67.66647
8.800000, 66.26416
8.830000, 67.42801
8.860000, 64.21106
8.890000, 61.87439
8.920000, 61.95215
8.950000, 61.43845
8.980000, 64.88647
9.010000, 66.71152
9.040000, 67.01477
9.070000, 65.67053
9.100000, 67.52997
9.130000, 64.36423
9.160000, 60.98935
9.190000, 64.93134
9.220000, 62.63019
9.250000, 57.10812
9.280000, 56.47479
9.310000, 54.38950
9.340000, 52.94342
9.370000, 52.23419
9.400000, 60.07947
9.430000, 65.17636
9.460000, 65.52875
9.490000, 63.97055
9.520000, 62.40283
9.550000, 64.53854
9.580000, 72.51065
9.610000, 77.44009
9.640000, 82.06189
9.670000, 84.51392
9.700000, 83.70123
9.730000, 80.77972
9.760000, 72.91541
9.790000, 69.59613
9.820000, 73.10303
9.850000, 79.76202
9.880000, 80.08923
9.910000, 72.43863
9.940000, 67.71121
9.970000, 71.03693
10.00000, 74.97470
10.03000, 72.75653
10.06000, 63.37427
10.09000, 62.85587
10.12000, 66.00519
10.15000, 67.62598
10.18000, 70.94275
10.21000, 72.90231
10.24000, 77.16727
10.27000, 77.60385
10.30000, 79.67548
10.33000, 83.01285
10.36000, 88.48569
10.39000, 94.02332
10.42000, 94.13907
10.45000, 87.03708
10.48000, 80.78101
10.51000, 76.75894
10.54000, 76.01645
10.57000, 84.42627
10.60000, 104.6308
10.63000, 122.2355
10.66000, 137.8429
10.69000, 162.6526
10.72000, 192.3513
10.75000, 225.9412
10.78000, 258.5419
10.81000, 288.3618
10.84000, 321.6477
10.87000, 358.7894
10.90000, 382.9894
10.93000, 400.3237
10.96000, 404.6711
10.99000, 397.9375
11.02000, 388.7129
11.05000, 371.7075
11.08000, 348.8184
11.11000, 313.7659
11.14000, 287.1130
11.17000, 245.8554
11.20000, 203.0134
11.23000, 167.8769
11.26000, 144.2344
11.29000, 129.8431
11.32000, 124.5009
11.35000, 120.6167
11.38000, 123.1325
11.41000, 126.4247
11.44000, 135.5873
11.47000, 148.5090
11.50000, 157.4379
11.53000, 168.3340
11.56000, 184.9378
11.59000, 192.8844
11.62000, 194.9299
11.65000, 194.9207
11.68000, 195.9537
11.71000, 193.8251
11.74000, 186.9803
11.77000, 180.9080
11.80000, 180.2908
11.83000, 176.4857
11.86000, 173.9147
11.89000, 176.9578
11.92000, 175.4635
11.95000, 179.4766
11.98000, 187.8038
12.01000, 196.8428
12.04000, 199.7996
12.07000, 207.0442
12.10000, 203.7145
12.13000, 214.1426
12.16000, 218.9183
12.19000, 216.0264
12.22000, 210.7003
12.25000, 208.4271
12.28000, 206.0256
12.31000, 198.8540
12.34000, 180.1743
12.37000, 158.4873
12.40000, 147.7571
12.43000, 142.2358
12.46000, 133.3931
12.49000, 119.5682
12.52000, 104.9750
12.55000, 94.06943
12.58000, 89.74844
12.61000, 89.48813
12.64000, 89.05130
12.67000, 88.37006
12.70000, 91.13922
12.73000, 87.43890
12.76000, 86.07297
12.79000, 87.72540
12.82000, 90.16724
12.85000, 90.79834
12.88000, 96.40570
12.91000, 98.75824
12.94000, 97.47202
12.97000, 91.57489
13.00000, 89.05292
13.03000, 93.54007
13.06000, 95.35175
13.09000, 94.76028
13.12000, 97.75839
13.15000, 101.8934
13.18000, 104.6758
13.21000, 103.8739
13.24000, 102.7491
13.27000, 108.3493
13.30000, 109.0102
13.33000, 111.2443
13.36000, 116.9020
13.39000, 122.8915
13.42000, 127.3865
13.45000, 134.6652
13.48000, 139.6143
13.51000, 145.3721
13.54000, 156.8094
13.57000, 176.1334
13.60000, 199.3476
13.63000, 222.9093
13.66000, 239.8332
13.69000, 257.3733
13.72000, 272.4716
13.75000, 284.1480
13.78000, 294.0336
13.81000, 299.9015
13.84000, 297.1344
13.87000, 291.5075
13.90000, 287.3830
13.93000, 285.9366
13.96000, 277.2885
13.99000, 262.9517
14.02000, 244.5511
14.05000, 226.5767
14.08000, 206.8957
14.11000, 184.5658
14.14000, 161.0015
14.17000, 140.9620
14.20000, 119.5274
14.23000, 96.79138
14.26000, 76.21939
14.29000, 66.48633
14.32000, 58.21722
14.35000, 54.67902
14.38000, 52.59564
14.41000, 50.71765
14.44000, 44.36969
14.47000, 43.63544
14.50000, 44.47791
14.53000, 43.12399
14.56000, 37.85767
14.59000, 30.84793
14.62000, 30.55612
14.65000, 31.26816
14.68000, 28.74466
14.71000, 31.53854
14.74000, 31.13583
14.77000, 25.85144
14.80000, 21.85535
14.83000, 22.71152
14.86000, 23.33490
14.89000, 22.46848
14.92000, 18.52109
14.95000, 13.26303
14.98000, 12.37119
15.01000, 17.08990
15.04000, 25.51236
15.07000, 27.16785
15.10000, 26.87656
15.13000, 23.75623
15.16000, 23.96417
15.19000, 25.06967
15.22000, 21.50226
15.25000, 19.36676
15.28000, 21.48608
15.31000, 23.99527
15.34000, 21.66486
15.37000, 21.07123
15.40000, 20.48856
15.43000, 17.02280
15.46000, 7.040863
15.49000, 0.1708370
15.52000, 4.107483
15.55000, 5.946564
15.58000, 2.730743
15.61000, 0.1475830
15.64000, 1.011841
15.67000, 0.8685000
15.70000, 2.400452
15.73000, 2.450897
15.76000, 1.196045
15.79000, 4.873779
15.82000, 7.239136
15.85000, 12.88110
15.88000, 17.78433
15.91000, 17.29266
15.94000, 16.59531
15.97000, 15.58493
16.00000, 15.28622
16.03000, 14.89801
16.06000, 15.45599
16.09000, 15.00211
16.12000, 12.07236
16.15000, 11.54071
16.18000, 12.16904
16.21000, 12.02945
16.24000, 13.58588
16.27000, 15.94415
16.30000, 17.22339
16.33000, 15.73746
16.36000, 12.71741
16.39000, 9.823120
16.42000, 7.549622
16.45000, 8.804810
16.48000, 9.156769
16.51000, 7.454315
16.54000, 6.961517
16.57000, 9.196381
16.60000, 10.79926
16.63000, 7.168884
16.66000, 3.955261
16.69000, 7.249664
16.72000, 11.76956
16.75000, 10.87836
16.78000, 10.65454
16.81000, 14.65604
16.84000, 15.62799
16.87000, 14.14352
16.90000, 11.81345
16.93000, 9.580475
16.96000, 11.28687
16.99000, 12.80399
17.02000, 14.90662
17.05000, 16.30664
17.08000, 15.12714
17.11000, 19.47916
17.14000, 19.14117
17.17000, 27.56537
17.20000, 32.30740
17.23000, 38.66168
17.26000, 45.10757
17.29000, 47.49203
17.32000, 48.54904
17.35000, 48.60052
17.38000, 48.84048
17.41000, 49.52386
17.44000, 46.47263
17.47000, 43.77975
17.50000, 42.81122
17.53000, 43.34195
17.56000, 37.34793
17.59000, 28.04211
17.62000, 17.12750
17.65000, 12.71405
17.68000, 11.55563
17.71000, 12.09332
17.74000, 12.57706
17.77000, 13.56778
17.80000, 14.58041
17.83000, 15.09796
17.86000, 15.62442
17.89000, 14.51474
17.92000, 16.42514
17.95000, 17.50671
17.98000, 17.80411
18.01000, 14.96893
18.04000, 16.17801
18.07000, 15.76587
18.10000, 15.28683
18.13000, 17.06400
18.16000, 14.68243
18.19000, 16.42270
18.22000, 16.51694
18.25000, 17.36374
18.28000, 16.57901
18.31000, 16.29742
18.34000, 17.64648
18.37000, 18.09155
18.40000, 9.739838
18.43000, 6.402405
18.46000, 4.077148
18.49000, 1.808929
18.52000, 5.372955
18.55000, 7.676620
18.58000, 11.16032
18.61000, 14.60477
18.64000, 13.82401
18.67000, 15.52165
18.70000, 16.18573
18.73000, 14.00970
18.76000, 13.20047
18.79000, 12.21274
18.82000, 11.19707
18.85000, 8.814987
18.88000, 2.009369
18.91000, 3.960205
18.94000, 7.691162
18.97000, 9.742874
19.00000, 14.20729
19.03000, 21.65640
19.06000, 29.62820
19.09000, 35.97495
19.12000, 43.40186
19.15000, 47.85217
19.18000, 52.55330
19.21000, 57.73511
19.24000, 59.92935
19.27000, 62.84468
19.30000, 62.61223
19.33000, 65.15158
19.36000, 70.23485
19.39000, 73.39807
19.42000, 71.48288
19.45000, 67.45988
19.48000, 65.94464
19.51000, 67.00784
19.54000, 67.52040
19.57000, 71.14130
19.60000, 74.54605
19.63000, 70.71927
19.66000, 66.01709
19.69000, 59.30801
19.72000, 53.39003
19.75000, 53.11205
19.78000, 52.96365
19.81000, 50.33174
19.84000, 48.04979
19.87000, 43.99084
19.90000, 39.73389
19.93000, 37.18680
19.96000, 32.16670
19.99000, 30.57849
20.02000, 28.91714
20.05000, 26.71875
20.08000, 20.69215
20.11000, 15.09743
20.14000, 13.03728
20.17000, 10.95418
20.20000, 7.803650
20.23000, 5.337112
20.26000, 1.877060
20.29000, 0.3358920
20.32000, 1.469528
20.35000, 2.819183
20.38000, 4.004852
20.41000, 0.5602260
20.44000, 5.197830
20.47000, 9.717972
20.50000, 13.56485
20.53000, 15.48247
20.56000, 14.04276
20.59000, 14.79642
20.62000, 15.48959
20.65000, 13.07631
20.68000, 13.76431
20.71000, 13.50569
20.74000, 15.05336
20.77000, 15.56848
20.80000, 16.38210
20.83000, 18.48920
20.86000, 21.67879
20.89000, 24.46761
20.92000, 28.37787
20.95000, 31.83556
20.98000, 37.03113
21.01000, 40.74219
21.04000, 45.50768
21.07000, 45.50366
21.10000, 48.84207
21.13000, 50.19693
21.16000, 44.30826
21.19000, 41.22301
21.22000, 42.97418
21.25000, 41.01077
21.28000, 39.49681
21.31000, 38.30125
21.34000, 35.74011
21.37000, 33.21307
21.40000, 26.84003
21.43000, 27.00012
21.46000, 22.23860
21.49000, 18.94046
21.52000, 20.00772
21.55000, 22.44838
21.58000, 25.01141
21.61000, 28.49683
21.64000, 28.82965
21.67000, 31.83386
21.70000, 32.07141
21.73000, 32.32838
21.76000, 36.80072
21.79000, 42.49442
21.82000, 48.53851
21.85000, 55.03596
21.88000, 58.29181
21.91000, 59.51605
21.94000, 61.97662
21.97000, 68.48061
22.00000, 71.55695
22.03000, 75.80269
22.06000, 84.91481
22.09000, 93.55341
22.12000, 95.09222
22.15000, 99.00229
22.18000, 99.72513
22.21000, 107.6487
22.24000, 112.5366
22.27000, 112.8515
22.30000, 117.9348
22.33000, 120.4221
22.36000, 115.6591
22.39000, 112.1472
22.42000, 100.3905
22.45000, 89.48317
22.48000, 80.70303
22.51000, 69.95862
22.54000, 56.62444
22.57000, 62.81329
22.60000, 45.40283
22.63000, 49.42230
22.66000, 25.42039
22.69000, 21.84962
22.72000, 19.30426
22.75000, 16.79840
22.78000, 11.05682
22.81000, 7.175400
22.84000, 4.958984
22.87000, 5.451248
22.90000, 5.843369
22.93000, 4.169434
22.96000, 0.4479980
22.99000, 4.330582
23.02000, 7.190323
23.05000, 6.493729
23.08000, 3.787384
23.11000, 1.361160
23.14000, 2.972519
23.17000, 4.372238
23.20000, 7.985641
23.23000, 10.57217
23.26000, 11.60796
23.29000, 11.13698
23.32000, 10.17223
23.35000, 7.747742
23.38000, 8.596451
23.41000, 15.88643
23.44000, 20.91969
23.47000, 21.91924
23.50000, 17.75011
23.53000, 16.29329
23.56000, 14.86681
23.59000, 12.11766
23.62000, 11.22694
23.65000, 9.495712
23.68000, 8.522369
23.71000, 6.909668
23.74000, 5.316315
23.77000, 4.252762
23.80000, 2.640244
23.83000, 4.364594
23.86000, 5.879684
23.89000, 4.109070
23.92000, 1.550415
23.95000, 0.3238370
23.98000, 1.4359000E-02
24.01000, 0.6541900
24.04000, 1.139038
24.07000, 3.314835
24.10000, 2.317413
24.13000, 3.560684
24.16000, 4.320816
24.19000, 14.21124
24.22000, 11.71484
24.25000, 13.21153
24.28000, 9.474304
24.31000, 9.292328
24.34000, 8.851257
24.37000, 3.282333
24.40000, 3.253372
24.43000, 6.358246
24.46000, 6.972046
24.49000, 9.447021
24.52000, 10.14803
24.55000, 12.18103
24.58000, 16.47404
24.61000, 18.74115
24.64000, 18.16226
24.67000, 18.42252
24.70000, 19.93184
24.73000, 20.89024
24.76000, 24.19078
24.79000, 26.46945
24.82000, 27.43628
24.85000, 26.40826
24.88000, 27.02644
24.91000, 27.98381
24.94000, 30.54637
24.97000, 33.38519
25.00000, 33.03120
25.03000, 34.30249
25.06000, 32.56404
25.09000, 28.75388
25.12000, 26.93901
25.15000, 26.25847
25.18000, 25.84325
25.21000, 24.77937
25.24000, 24.99583
25.27000, 25.51469
25.30000, 21.88194
25.33000, 21.05759
25.36000, 21.92465
25.39000, 26.02817
25.42000, 27.24010
25.45000, 26.80054
25.48000, 25.94543
25.51000, 26.40384
25.54000, 26.59074
25.57000, 25.42520
25.60000, 25.72719
25.63000, 29.35170
25.66000, 31.64183
25.69000, 32.23459
25.72000, 26.15533
25.75000, 23.09961
25.78000, 23.93794
25.81000, 25.03030
25.84000, 25.66956
25.87000, 23.44020
25.90000, 22.36540
25.93000, 22.53069
25.96000, 20.60689
25.99000, 19.63376
26.02000, 20.47090
26.05000, 24.96732
26.08000, 22.69972
26.11000, 24.02509
26.14000, 26.34721
26.17000, 25.79617
26.20000, 18.89992
26.23000, 16.35851
26.26000, 14.85495
26.29000, 11.81323
26.32000, 10.61337
26.35000, 12.16139
26.38000, 14.04428
26.41000, 16.11969
26.44000, 17.10817
26.47000, 18.40530
26.50000, 19.04886
26.53000, 20.70447
26.56000, 21.02251
26.59000, 21.67838
26.62000, 22.14642
26.65000, 19.73209
26.68000, 14.98671
26.71000, 16.46133
26.74000, 21.59596
26.77000, 26.28304
26.80000, 29.80405
26.83000, 36.35378
26.86000, 43.69569
26.89000, 49.33009
26.92000, 62.79030
26.95000, 63.15451
26.98000, 69.53253
27.01000, 76.81882
27.04000, 77.42844
27.07000, 78.06439
27.10000, 79.23363
27.13000, 76.46323
27.16000, 75.68988
27.19000, 74.60909
27.22000, 70.27216
27.25000, 70.47324
27.28000, 66.22069
27.31000, 61.22379
27.34000, 60.10806
27.37000, 59.69989
27.40000, 55.09648
27.43000, 55.45938
27.46000, 54.71155
27.49000, 49.98915
27.52000, 44.75090
27.55000, 41.69852
27.58000, 40.67203
27.61000, 38.27124
27.64000, 36.95009
27.67000, 35.17299
27.70000, 33.65834
27.73000, 30.96904
27.76000, 30.65678
27.79000, 29.70264
27.82000, 26.77968
27.85000, 22.75471
27.88000, 19.12975
27.91000, 20.61131
27.94000, 23.72383
27.97000, 26.98409
28.00000, 27.98892
28.03000, 30.09549
28.06000, 30.30153
28.09000, 28.53528
28.12000, 28.49969
28.15000, 29.03574
28.18000, 29.29042
28.21000, 26.05980
28.24000, 26.09482
28.27000, 25.67151
28.30000, 26.68687
28.33000, 26.44191
28.36000, 26.32666
28.39000, 25.38139
28.42000, 23.78401
28.45000, 22.59805
28.48000, 19.77559
28.51000, 18.32585
28.54000, 16.56284
28.57000, 15.03754
28.60000, 14.27699
28.63000, 14.21416
28.66000, 15.04308
28.69000, 15.55272
28.72000, 19.92111
28.75000, 23.54129
28.78000, 23.04022
28.81000, 24.40991
28.84000, 27.56136
28.87000, 29.17958
28.90000, 28.76257
28.93000, 24.85837
28.96000, 24.49292
28.99000, 24.74628
29.02000, 23.50743
29.05000, 25.01436
29.08000, 25.46509
29.11000, 20.42462
29.14000, 14.22498
29.17000, 14.89610
29.20000, 17.38908
29.23000, 20.82384
29.26000, 24.56374
29.29000, 23.97296
29.32000, 18.73027
29.35000, 17.09528
29.38000, 18.25304
29.41000, 19.62958
29.44000, 15.34485
29.47000, 11.84785
29.50000, 12.53056
29.53000, 14.15894
29.56000, 15.53200
29.59000, 20.31673
29.62000, 22.41307
29.65000, 23.14807
29.68000, 26.73267
29.71000, 23.46193
29.74000, 16.15179
29.77000, 12.10028
29.80000, 14.10341
29.83000, 16.96318
29.86000, 18.41431
29.89000, 16.12544
29.92000, 14.99121
29.95000, 14.17262
29.98000, 13.86047
30.01000, 14.36145
30.04000, 15.65915
30.07000, 16.50670
30.10000, 20.04605
30.13000, 21.81439
30.16000, 24.90152
30.19000, 24.90845
30.22000, 26.22244
30.25000, 25.94882
30.28000, 26.47731
30.31000, 25.01917
30.34000, 23.86211
30.37000, 21.92198
30.40000, 21.44952
30.43000, 22.10576
30.46000, 23.49376
30.49000, 23.83353
30.52000, 23.55620
30.55000, 23.79102
30.58000, 21.85779
30.61000, 20.20918
30.64000, 18.34425
30.67000, 17.59598
30.70000, 16.85234
30.73000, 17.50937
30.76000, 17.32607
30.79000, 14.13039
30.82000, 12.96236
30.85000, 8.913956
30.88000, 5.370193
30.91000, 5.705093
30.94000, 6.431747
30.97000, 2.996170
31.00000, 7.6629996E-02
31.03000, 5.667053
31.06000, 8.327805
31.09000, 9.356293
31.12000, 8.511856
31.15000, 7.571655
31.18000, 3.065964
31.21000, 2.843582
31.24000, 5.482910
31.27000, 1.834732
31.30000, 0.3172150
31.33000, 1.455582
31.36000, 0.5934300
31.39000, 0.2623600
31.42000, 0.4093020
31.45000, 2.603500
31.48000, 2.327652
31.51000, 3.095291
31.54000, 3.905945
31.57000, 5.072861
31.60000, 5.476303
31.63000, 1.433273
31.66000, 1.699799
31.69000, 1.930283
31.72000, 4.635132
31.75000, 7.125351
31.78000, 7.333954
31.81000, 9.736923
31.84000, 10.07726
31.87000, 11.62991
31.90000, 13.63795
31.93000, 16.37134
31.96000, 18.05106
31.99000, 20.25410
32.02000, 23.44852
32.05000, 24.36861
32.08000, 25.49205
32.11000, 26.34700
32.14000, 25.42990
32.17000, 24.90514
32.20000, 23.16670
32.23000, 21.93558
32.26000, 22.32477
32.29000, 22.85922
32.32000, 22.83698
32.35000, 21.19701
32.38000, 19.87730
32.41000, 18.73389
32.44000, 17.87178
32.47000, 13.69189
32.50000, 7.918289
32.53000, 7.822922
32.56000, 8.149841
32.59000, 7.217957
32.62000, 12.43033
32.65000, 17.16396
32.68000, 17.86479
32.71000, 16.67386
32.74000, 13.63213
32.77000, 7.439621
32.80000, 3.208328
32.83000, 8.7219000E-02
32.86000, 2.408737
32.89000, 2.197418
32.92000, 0.5532680
32.95000, 2.417130
32.98000, 1.608154
33.01000, 0.8053740
33.04000, 0.4207310
33.07000, 3.985245
33.10000, 7.932922
33.13000, 10.22974
33.16000, 9.829712
33.19000, 11.56483
33.22000, 12.17307
33.25000, 12.74644
33.28000, 14.02896
33.31000, 15.00447
33.34000, 16.60437
33.37000, 18.03142
33.40000, 19.59451
33.43000, 22.30727
33.46000, 21.88770
33.49000, 22.96896
33.52000, 23.51784
33.55000, 23.56267
33.58000, 21.59401
33.61000, 22.22571
33.64000, 21.81557
33.67000, 21.36288
33.70000, 18.85834
33.73000, 16.88737
33.76000, 15.79742
33.79000, 13.68855
33.82000, 13.49176
33.85000, 14.58543
33.88000, 16.17323
33.91000, 15.82954
33.94000, 12.25545
33.97000, 9.852051
34.00000, 8.795914
34.03000, 12.27121
34.06000, 11.04419
34.09000, 11.43677
34.12000, 13.60748
34.15000, 13.55000
34.18000, 11.22748
34.21000, 10.19685
34.24000, 10.73911
34.27000, 11.36124
34.30000, 11.08792
34.33000, 10.41283
34.36000, 7.494537
34.39000, 7.012161
34.42000, 6.263641
34.45000, 5.318985
34.48000, 5.398178
34.51000, 4.416214
34.54000, 5.619095
34.57000, 4.814331
34.60000, 4.828781
34.63000, 4.106201
34.66000, 5.8364999E-02
34.69000, 1.036774
34.72000, 5.4016002E-02
34.75000, 0.2315220
34.78000, 1.178314
34.81000, 0.5066530
34.84000, 0.7851410
34.87000, 1.676178
34.90000, 1.152817
34.93000, 1.500671
34.96000, 1.510864
34.99000, 1.903549
35.02000, 1.350342
35.05000, 0.9694520
35.08000, 1.530777
35.11000, 1.323486
35.14000, 1.311325
35.17000, 1.616669
35.20000, 1.650513
35.23000, 1.730148
35.26000, 2.559540
35.29000, 2.096024
35.32000, 2.413239
35.35000, 2.985138
35.38000, 2.522751
35.41000, 4.510086
35.44000, 6.978104
35.47000, 8.214798
35.50000, 9.045227
35.53000, 10.13232
35.56000, 11.29512
35.59000, 10.03458
35.62000, 9.134964
35.65000, 8.712463
35.68000, 8.299698
35.71000, 8.978363
35.74000, 9.153229
35.77000, 10.23801
35.80000, 10.81923
35.83000, 11.91203
35.86000, 12.25496
35.89000, 12.40356
35.92000, 12.41821
35.95000, 11.41020
35.98000, 10.28972
36.01000, 8.413376
36.04000, 7.202682
36.07000, 5.686630
36.10000, 6.509186
36.13000, 10.10838
36.16000, 13.25418
36.19000, 13.16460
36.22000, 11.33266
36.25000, 11.04932
36.28000, 10.81760
36.31000, 11.65448
36.34000, 10.94098
36.37000, 8.430054
36.40000, 7.215729
36.43000, 8.395706
36.46000, 13.73277
36.49000, 14.86914
36.52000, 12.00319
36.55000, 8.477875
36.58000, 9.847153
36.61000, 7.720001
36.64000, 7.015472
36.67000, 7.793533
36.70000, 7.775864
36.73000, 8.480698
36.76000, 9.616226
36.79000, 9.804611
36.82000, 9.911575
36.85000, 9.507111
36.88000, 8.988434
36.91000, 6.664536
36.94000, 6.145966
36.97000, 2.533112
37.00000, 1.739639
37.03000, 0.4329220
37.06000, 4.651321
37.09000, 9.199158
37.12000, 8.467514
37.15000, 6.751785
37.18000, 5.500092
37.21000, 6.542419
37.24000, 7.787033
37.27000, 7.304001
37.30000, 6.003860
37.33000, 6.046570
37.36000, 4.167648
37.39000, 4.337418
37.42000, 4.072296
37.45000, 2.795288
37.48000, 2.702454
37.51000, 3.299530
37.54000, 4.454971
37.57000, 2.286942
37.60000, 1.009079
37.63000, 2.032013
37.66000, 4.638351
37.69000, 3.666458
37.72000, 5.016953
37.75000, 7.956100
37.78000, 7.869659
37.81000, 5.910843
37.84000, 4.337448
37.87000, 3.009949
37.90000, 5.195404
37.93000, 4.672821
37.96000, 6.808151
37.99000, 11.17532
38.02000, 9.814514
38.05000, 10.37216
38.08000, 9.269257
38.11000, 6.142822
38.14000, 2.406815
38.17000, 0.6241300
38.20000, 1.103729
38.23000, 1.675293
38.26000, 2.061417
38.29000, 0.9182590
38.32000, 0.6889340
38.35000, 2.270569
38.38000, 1.736984
38.41000, 3.461380
38.44000, 5.571609
38.47000, 5.673172
38.50000, 5.606125
38.53000, 7.201141
38.56000, 6.480423
38.59000, 2.392700
38.62000, 3.787491
38.65000, 3.654877
38.68000, 2.723206
38.71000, 5.009445
38.74000, 4.132797
38.77000, 3.697510
38.80000, 3.531647
38.83000, 3.909439
38.86000, 4.921097
38.89000, 8.588486
38.92000, 8.137756
38.95000, 9.738541
38.98000, 12.03195
39.01000, 11.75691
39.04000, 11.96036
39.07000, 10.40634
39.10000, 9.969803
39.13000, 7.086777
39.16000, 4.995239
39.19000, 1.767212
39.22000, 1.845589
39.25000, 2.444359
39.28000, 2.003548
39.31000, 2.451141
39.34000, 3.476158
39.37000, 4.767235
39.40000, 5.653366
39.43000, 7.700882
39.46000, 7.388741
39.49000, 6.775124
39.52000, 6.242996
39.55000, 4.718361
39.58000, 3.713257
39.61000, 5.227623
39.64000, 8.837494
39.67000, 10.71387
39.70000, 10.63977
39.73000, 10.33115
39.76000, 9.847069
39.79000, 9.587563
39.82000, 10.10548
39.85000, 8.945824
39.88000, 10.82677
39.91000, 11.02122
39.94000, 10.01920
39.97000, 7.780724
40.00000, 6.069786
40.03000, 7.491577
40.06000, 9.820595
40.09000, 10.16457
40.12000, 10.84162
40.15000, 12.69952
40.18000, 12.23293
40.21000, 14.05037
40.24000, 14.82863
40.27000, 16.11829
40.30000, 16.43777
40.33000, 16.04979
40.36000, 15.87330
40.39000, 15.64535
40.42000, 11.08192
40.45000, 4.384010
40.48000, 2.429596
40.51000, 0.7236400
40.54000, 1.137032
40.57000, 0.9473570
40.60000, 4.020569
40.63000, 6.025856
40.66000, 7.117691
40.69000, 4.757454
40.72000, 2.263962
40.75000, 1.174934
40.78000, 0.5412900
40.81000, 0.8139110
40.84000, 1.248871
40.87000, 2.295227
40.90000, 3.917046
40.93000, 2.948387
40.96000, 0.8962250
40.99000, 1.069588
41.02000, 2.417145
41.05000, 2.068245
41.08000, 4.784279
41.11000, 2.639229
41.14000, 0.5000530
41.17000, 4.816460
41.20000, 4.322273
41.23000, 1.098351
41.26000, 1.654793
41.29000, 0.7805180
41.32000, 3.794769
41.35000, 3.803581
41.38000, 6.313957
41.41000, 5.218925
41.44000, 4.344452
41.47000, 6.268234
41.50000, 4.542274
41.53000, 8.365448
41.56000, 4.317177
41.59000, 5.495743
41.62000, 8.164452
41.65000, 8.136703
41.68000, 7.900330
41.71000, 9.900391
41.74000, 10.97410
41.77000, 11.47304
41.80000, 11.36690
41.83000, 9.210808
41.86000, 9.631340
41.89000, 9.027672
41.92000, 9.211884
41.95000, 8.559761
41.98000, 6.579910
42.01000, 4.126579
42.04000, 5.493469
42.07000, 7.370758
42.10000, 7.796783
42.13000, 9.329094
42.16000, 7.291679
42.19000, 5.311470
42.22000, 6.275787
42.25000, 5.538475
42.28000, 5.825264
42.31000, 6.636490
42.34000, 7.459679
42.37000, 8.127647
42.40000, 8.826523
42.43000, 9.601570
42.46000, 6.586098
42.49000, 6.154465
42.52000, 7.371658
42.55000, 8.034271
42.58000, 10.84724
42.61000, 13.76202
42.64000, 12.80087
42.67000, 10.16038
42.70000, 7.639084
42.73000, 8.138855
42.76000, 8.512367
42.79000, 6.926292
42.82000, 8.254494
42.85000, 8.073578
42.88000, 11.09900
42.91000, 9.088097
42.94000, 9.566017
42.97000, 10.65432
43.00000, 8.109207
43.03000, 6.302200
43.06000, 7.870941
43.09000, 7.746834
43.12000, 6.269379
43.15000, 6.270264
43.18000, 5.835754
43.21000, 6.992302
43.24000, 7.552528
43.27000, 6.421410
43.30000, 5.441963
43.33000, 4.563187
43.36000, 5.867134
43.39000, 6.427101
43.42000, 8.130028
43.45000, 8.140434
43.48000, 8.517212
43.51000, 8.470024
43.54000, 8.391060
43.57000, 8.752724
43.60000, 8.631279
43.63000, 9.074722
43.66000, 7.067429
43.69000, 4.776459
43.72000, 5.192741
43.75000, 7.105110
43.78000, 4.461159
43.81000, 5.057869
43.84000, 8.241249
43.87000, 9.626297
43.90000, 8.583031
43.93000, 7.384422
43.96000, 5.897491
43.99000, 6.694244
44.02000, 5.441071
44.05000, 6.348572
44.08000, 6.720520
44.11000, 6.566895
44.14000, 4.307182
44.17000, 4.739746
44.20000, 4.153381
44.23000, 3.532066
44.26000, 3.985115
44.29000, 5.430588
44.32000, 7.580391
44.35000, 10.23840
44.38000, 10.27860
44.41000, 6.923752
44.44000, 6.232071
44.47000, 7.688255
44.50000, 7.827148
44.53000, 5.683670
44.56000, 6.046852
44.59000, 3.979156
44.62000, 5.524605
44.65000, 9.215080
44.68000, 13.24385
44.71000, 13.39046
44.74000, 10.44479
44.77000, 7.425140
44.80000, 7.568779
44.83000, 7.684219
44.86000, 5.474083
44.89000, 4.316292
44.92000, 6.457397
44.95000, 7.446594
44.98000, 5.059334
45.01000, 1.999290
45.04000, 2.151299
45.07000, 2.459450
45.10000, 3.405724
45.13000, 2.480347
45.16000, 3.120331
45.19000, 1.784531
45.22000, 1.071365
45.25000, 1.114716
45.28000, 2.126831
45.31000, 3.870056
45.34000, 3.716133
45.37000, 5.827255
45.40000, 6.465141
45.43000, 5.588661
45.46000, 4.242920
45.49000, 1.360703
45.52000, 0.4608000
45.55000, 5.2673001E-02
45.58000, 0.6883390
45.61000, 2.190781
45.64000, 2.162987
45.67000, 4.125992
45.70000, 4.241798
45.73000, 4.304382
45.76000, 4.956772
45.79000, 5.372971
45.82000, 5.721970
45.85000, 6.204773
45.88000, 6.659393
45.91000, 7.052795
45.94000, 5.485992
45.97000, 5.300873
46.00000, 6.720680
46.03000, 8.917290
46.06000, 5.053726
46.09000, 0.5471570
46.12000, 0.2159190
46.15000, 0.2605820
46.18000, 1.341812
46.21000, 5.252785
46.24000, 6.748558
46.27000, 4.276573
46.30000, 3.005547
46.33000, 5.977211
46.36000, 6.674110
46.39000, 5.566872
46.42000, 6.623489
46.45000, 6.299919
46.48000, 2.305191
46.51000, 1.527313
46.54000, 3.361061
46.57000, 1.225128
46.60000, 1.218910
46.63000, 2.142509
46.66000, 3.512871
46.69000, 4.753029
46.72000, 2.311005
46.75000, 2.310760
46.78000, 3.396317
46.81000, 4.838692
46.84000, 4.702858
46.87000, 5.400826
46.90000, 5.458603
46.93000, 5.356201
46.96000, 5.101852
46.99000, 4.859848
47.02000, 3.555229
47.05000, 3.557014
47.08000, 2.186607
47.11000, 0.6813810
47.14000, 0.9213030
47.17000, 0.4611130
47.20000, 0.5132520
47.23000, 0.1222760
47.26000, 1.729988
47.29000, 0.9604420
47.32000, 3.121468
47.35000, 5.614464
47.38000, 5.288292
47.41000, 3.244934
47.44000, 3.822388
47.47000, 5.234673
47.50000, 6.242775
47.53000, 6.265694
47.56000, 6.179436
47.59000, 2.993011
47.62000, 2.784409
47.65000, 0.8646550
47.68000, 1.234619
47.71000, 0.7406160
47.74000, 2.267334
47.77000, 3.113297
47.80000, 1.063011
47.83000, 5.4131001E-02
47.86000, 0.5446620
47.89000, 2.389465
47.92000, 4.114464
47.95000, 4.474434
47.98000, 4.444351
48.01000, 1.635414
48.04000, 1.731064
48.07000, 3.326584
48.10000, 4.838051
48.13000, 4.776398
48.16000, 7.521660
48.19000, 8.392273
48.22000, 10.93077
48.25000, 10.54016
48.28000, 9.876381
48.31000, 8.548492
48.34000, 7.601791
48.37000, 7.577415
48.40000, 8.328232
48.43000, 4.626984
48.46000, 1.597252
48.49000, 1.039650
48.52000, 0.4855880
48.55000, 0.4873500
48.58000, 0.1922000
48.61000, 0.6634140
48.64000, 0.1129380
48.67000, 2.205696
48.70000, 3.854057
48.73000, 5.413414
48.76000, 2.906303
48.79000, 0.9106600
48.82000, 1.430511
48.85000, 0.4541320
48.88000, 4.193451
48.91000, 7.120537
48.94000, 7.245590
48.97000, 8.692902
49.00000, 5.844673
49.03000, 4.392799
49.06000, 4.301758
49.09000, 5.590446
49.12000, 6.732742
49.15000, 8.821159
49.18000, 8.876167
49.21000, 9.436958
49.24000, 9.633904
49.27000, 8.901360
49.30000, 9.849655
49.33000, 8.824829
49.36000, 7.324837
49.39000, 6.863716
49.42000, 5.669052
49.45000, 3.709755
49.48000, 5.157921
49.51000, 2.343040
49.54000, 0.9300460
49.57000, 3.523079
49.60000, 2.351974
49.63000, 0.3212510
49.66000, 0.3419570
49.69000, 2.986237
49.72000, 8.368774
49.75000, 7.503876
49.78000, 4.850716
49.81000, 1.956825
49.84000, 1.634789
49.87000, 1.257454
49.90000, 7.0533998E-02
49.93000, 0.4845890
49.96000, 5.035095
49.99000, 6.434181
50.02000, 4.449860
50.05000, 4.853622
50.08000, 3.099442
50.11000, 5.149361
50.14000, 4.839760
50.17000, 5.561752
50.20000, 4.772400
50.23000, 3.612892
50.26000, 2.636818
50.29000, 4.550064
50.32000, 5.492790
50.35000, 7.401680
50.38000, 7.453102
50.41000, 6.900558
50.44000, 5.009354
50.47000, 1.384285
50.50000, 5.2640000E-03
50.53000, 1.263046
50.56000, 0.9945140
50.59000, 0.9504090
50.62000, 1.323257
50.65000, 1.414642
50.68000, 4.908142
50.71000, 6.314247
50.74000, 6.187943
50.77000, 8.230377
50.80000, 7.691666
50.83000, 9.416412
50.86000, 8.197685
50.89000, 10.31231
50.92000, 12.88251
50.95000, 12.91768
50.98000, 12.14717
51.01000, 12.01968
51.04000, 10.05309
51.07000, 8.470245
51.10000, 6.217300
51.13000, 5.015274
51.16000, 4.165550
51.19000, 4.721024
51.22000, 6.150093
51.25000, 7.234787
51.28000, 11.19350
51.31000, 10.75001
51.34000, 8.478279
51.37000, 8.954659
51.40000, 5.139511
51.43000, 0.3016050
51.46000, 2.679695
51.49000, 0.2559740
51.52000, 4.104004
51.55000, 6.429718
51.58000, 6.952744
51.61000, 5.530617
51.64000, 5.080757
51.67000, 5.785736
51.70000, 5.463326
51.73000, 4.483444
51.76000, 6.499878
51.79000, 8.404648
51.82000, 6.658928
51.85000, 5.495956
51.88000, 5.349098
51.91000, 6.559082
51.94000, 5.672958
51.97000, 5.347664
52.00000, 4.741814
52.03000, 3.553032
52.06000, 3.467041
52.09000, 0.3704070
52.12000, 2.996696
52.15000, 3.467873
52.18000, 3.715302
52.21000, 7.577194
52.24000, 9.079102
52.27000, 5.421516
52.30000, 2.896629
52.33000, 3.760834
52.36000, 5.534439
52.39000, 7.619972
52.42000, 6.543823
52.45000, 3.524567
52.48000, 2.852615
52.51000, 1.135056
52.54000, 1.373978
52.57000, 1.261383
52.60000, 0.4095610
52.63000, 0.6754460
52.66000, 1.566254
52.69000, 3.275352
52.72000, 4.480629
52.75000, 3.672325
52.78000, 5.464149
52.81000, 6.214134
52.84000, 6.921326
52.87000, 9.079208
52.90000, 6.854431
52.93000, 7.184135
52.96000, 11.60109
52.99000, 7.663689
53.02000, 8.493546
53.05000, 11.68694
53.08000, 9.304420
53.11000, 4.965927
53.14000, 4.195824
53.17000, 5.203766
53.20000, 5.257782
53.23000, 3.622330
53.26000, 3.925377
53.29000, 7.062454
53.32000, 11.19942
53.35000, 12.13852
53.38000, 10.35382
53.41000, 9.242493
53.44000, 6.056213
53.47000, 5.485924
53.50000, 3.581551
53.53000, 3.575539
53.56000, 3.091995
53.59000, 1.940948
53.62000, 2.725487
53.65000, 3.608582
53.68000, 2.556702
53.71000, 4.040077
53.74000, 1.563797
53.77000, 5.338997
53.80000, 8.191742
53.83000, 8.032120
53.86000, 5.306618
53.89000, 4.256447
53.92000, 6.643112
53.95000, 8.943703
53.98000, 6.749023
54.01000, 3.049774
54.04000, 2.485588
54.07000, 4.744225
54.10000, 4.939529
54.13000, 6.745720
54.16000, 8.624138
54.19000, 8.001732
54.22000, 8.324707
54.25000, 9.340866
54.28000, 10.31672
54.31000, 13.65810
54.34000, 13.30228
54.37000, 10.99538
54.40000, 9.097717
54.43000, 4.367851
54.46000, 2.357498
54.49000, 4.268898
54.52000, 7.399323
54.55000, 8.239670
54.58000, 5.944839
54.61000, 4.413429
54.64000, 4.979744
54.67000, 7.256592
54.70000, 10.25862
54.73000, 7.005905
54.76000, 3.406677
54.79000, 3.958420
54.82000, 5.266876
54.85000, 11.02844
54.88000, 14.37976
54.91000, 12.82281
54.94000, 10.40291
54.97000, 9.658844
55.00000, 7.664673
55.03000, 3.682724
55.06000, 0.2283250
55.09000, 1.017616
55.12000, 2.708839
55.15000, 5.693344
55.18000, 6.237328
55.21000, 8.593521
55.24000, 13.68813
55.27000, 13.49875
55.30000, 12.08476
55.33000, 11.07098
55.36000, 7.177773
55.39000, 7.672226
55.42000, 11.43721
55.45000, 13.38593
55.48000, 10.99596
55.51000, 8.851517
55.54000, 4.702568
55.57000, 4.001205
55.60000, 8.646675
55.63000, 8.238319
55.66000, 4.611053
55.69000, 2.756088
55.72000, 2.723503
55.75000, 4.297386
55.78000, 5.246376
55.81000, 5.271286
55.84000, 4.727959
55.87000, 5.049461
55.90000, 3.713478
55.93000, 4.513580
55.96000, 3.185471
55.99000, 2.509583
56.02000, 4.462082
56.05000, 2.447296
56.08000, 3.900002
56.11000, 8.576309
56.14000, 11.12063
56.17000, 8.593544
56.20000, 7.308990
56.23000, 4.874458
56.26000, 4.565460
56.29000, 2.684242
56.32000, 4.002655
56.35000, 3.292816
56.38000, 2.603661
56.41000, 1.453293
56.44000, 2.550133
56.47000, 4.189293
56.50000, 6.621368
56.53000, 4.536659
56.56000, 0.7428360
56.59000, 2.967812
56.62000, 4.707375
56.65000, 8.254929
56.68000, 7.843437
56.71000, 9.904320
56.74000, 7.476295
56.77000, 5.264008
56.80000, 4.875786
56.83000, 2.576622
56.86000, 0.4985960
56.89000, 7.5286999E-02
56.92000, 4.851700
56.95000, 8.733253
56.98000, 6.660667
57.01000, 2.047073
57.04000, 1.615173
57.07000, 0.1789630
57.10000, 1.827560
57.13000, 3.705032
57.16000, 4.390259
57.19000, 10.01024
57.22000, 11.85481
57.25000, 8.279640
57.28000, 4.862297
57.31000, 2.262169
57.34000, 1.567245
57.37000, 0.6828310
57.40000, 1.152199
57.43000, 1.529442
57.46000, 5.989510
57.49000, 9.114616
57.52000, 8.445038
57.55000, 7.657013
57.58000, 6.767929
57.61000, 6.013878
57.64000, 6.367760
57.67000, 5.690727
57.70000, 5.668488
57.73000, 5.190582
57.76000, 5.398766
57.79000, 5.024971
57.82000, 4.641853
57.85000, 3.700821
57.88000, 2.552353
57.91000, 2.090591
57.94000, 0.3890300
57.97000, 2.156731
58.00000, 0.5244830
58.03000, 1.240891
58.06000, 1.674248
58.09000, 0.2730870
58.12000, 1.584137
58.15000, 0.2137220
58.18000, 0.1289980
58.21000, 2.230270
58.24000, 4.259895
58.27000, 2.923691
58.30000, 2.338432
58.33000, 3.269173
58.36000, 2.320381
58.39000, 6.615341
58.42000, 2.967064
58.45000, 3.988548
58.48000, 6.584511
58.51000, 5.591583
58.54000, 8.413055
58.57000, 9.717255
58.60000, 7.178154
58.63000, 3.056923
58.66000, 0.5756910
58.69000, 3.331337
58.72000, 7.319740
58.75000, 7.608063
58.78000, 9.298119
58.81000, 7.047287
58.84000, 4.209068
58.87000, 6.415459
58.90000, 9.739281
58.93000, 8.193626
58.96000, 6.876350
58.99000, 6.801895
59.02000, 4.283455
59.05000, 5.784874
59.08000, 5.821465
59.11000, 5.202156
59.14000, 4.065987
59.17000, 0.8216780
59.20000, 2.9487999E-02
59.23000, 2.097748
59.26000, 1.6235000E-02
59.29000, 0.0000000E+00
##END=



