##NAMES=Cymrite
##RRUFFID=R080032
##IDEAL CHEMISTRY=Ba(Si,Al)_4_(O,OH)_8_&#183;H_2_O
##LOCALITY=Langban, Filipstad, Varmland, Sweden
##OWNER=RRUFF
##SOURCE=Michael Scott
##DESCRIPTION=Vitreous, massive opaque grey associated with calcite and phlogopite
##DIFFRACTION SAMPLE DESCRIPTION=Powder, using Mo radiation
##STATUS=The identification of this mineral is not yet confirmed.
##URL=rruff.info/R080032
4.590000, 0.0000000E+00
4.610000, 2.853073
4.630000, 11.97119
4.650000, 9.705032
4.670000, 0.3216710
4.690000, 0.5231320
4.710000, 4.9240001E-02
4.730000, 1.806656
4.750000, 10.63875
4.770000, 15.39848
4.790000, 12.83128
4.810000, 10.22064
4.830000, 10.77425
4.850000, 9.046585
4.870000, 2.907578
4.890000, 0.2760310
4.910000, 1.913757
4.930000, 5.713730
4.950000, 6.288284
4.970000, 4.192184
4.990000, 5.660431
5.010000, 6.627258
5.030000, 11.29819
5.050000, 15.88550
5.070000, 15.91284
5.090000, 17.52116
5.110000, 12.99554
5.130000, 16.15919
5.150000, 14.37228
5.170000, 12.73135
5.190000, 19.66713
5.210000, 27.78432
5.230000, 32.88559
5.250000, 32.09996
5.270000, 30.18294
5.290000, 28.19310
5.310000, 25.88150
5.330000, 23.90860
5.350000, 26.48399
5.370000, 27.73320
5.390000, 23.69182
5.410000, 22.10149
5.430000, 21.28285
5.450000, 15.24217
5.470000, 11.60057
5.490000, 15.00919
5.510000, 18.77313
5.530000, 18.29898
5.550000, 21.51828
5.570000, 24.27524
5.590000, 21.96294
5.610000, 22.40421
5.630000, 25.91429
5.650000, 25.74631
5.670000, 26.78343
5.690000, 27.54834
5.710000, 25.78244
5.730000, 27.43198
5.750000, 24.02095
5.770000, 22.97466
5.790000, 26.17859
5.810000, 27.90442
5.830000, 29.75070
5.850000, 37.94104
5.870000, 42.56096
5.890000, 43.45819
5.910000, 42.05988
5.930000, 39.47801
5.950000, 40.59543
5.970000, 41.39003
5.990000, 43.89568
6.010000, 48.98079
6.030000, 47.30482
6.050000, 49.32108
6.070000, 52.77721
6.090000, 48.86012
6.110000, 46.74133
6.130000, 48.37593
6.150000, 47.02705
6.170000, 46.13974
6.190000, 49.75406
6.210000, 58.11308
6.230000, 75.89188
6.250000, 98.82553
6.270000, 115.9100
6.290000, 131.6057
6.310000, 145.4955
6.330000, 156.4703
6.350000, 158.3362
6.370000, 155.7446
6.390000, 150.9155
6.410000, 141.8104
6.430000, 128.9019
6.450000, 107.3814
6.470000, 84.69751
6.490000, 72.88181
6.510000, 59.39978
6.530000, 47.58498
6.550000, 43.48703
6.570000, 37.88844
6.590000, 31.60143
6.610000, 29.91531
6.630000, 32.24109
6.650000, 36.52577
6.670000, 41.88432
6.690000, 47.01282
6.710000, 55.27112
6.730000, 58.34329
6.750000, 53.03720
6.770000, 52.09976
6.790000, 57.93001
6.810000, 61.94586
6.830000, 65.31041
6.850000, 69.28873
6.870000, 69.60477
6.890000, 73.27556
6.910000, 75.50781
6.930000, 78.53050
6.950000, 80.75568
6.970000, 85.53973
6.990000, 88.83063
7.010000, 92.14116
7.030000, 91.08316
7.050000, 86.46136
7.070000, 75.52692
7.090000, 63.60992
7.110000, 52.46561
7.130000, 47.04750
7.150000, 35.88605
7.170000, 38.66739
7.190000, 38.19873
7.210000, 36.27505
7.230000, 35.22169
7.250000, 35.71863
7.270000, 36.00447
7.290000, 43.80145
7.310000, 46.21564
7.330000, 36.29163
7.350000, 26.36618
7.370000, 24.72690
7.390000, 22.29333
7.410000, 21.27602
7.430000, 19.63368
7.450000, 18.90158
7.470000, 18.41623
7.490000, 18.55112
7.510000, 18.35037
7.530000, 18.92188
7.550000, 19.53638
7.570000, 21.94556
7.590000, 20.89603
7.610000, 23.54924
7.630000, 25.15109
7.650000, 24.46655
7.670000, 21.31366
7.690000, 15.71429
7.710000, 10.17250
7.730000, 4.927216
7.750000, 3.480408
7.770000, 3.247101
7.790000, 4.734222
7.810000, 6.222778
7.830000, 6.544235
7.850000, 7.476425
7.870000, 8.139877
7.890000, 8.926941
7.910000, 9.941315
7.930000, 11.97792
7.950000, 8.790588
7.970000, 2.882294
7.990000, 0.3779300
8.010000, 4.040482
8.030000, 5.089706
8.050000, 4.356354
8.070000, 4.235245
8.090000, 4.700043
8.110000, 3.314453
8.130000, 3.217270
8.150000, 0.3426510
8.170000, 1.366074
8.190000, 4.446274
8.210000, 0.4345250
8.230000, 12.48000
8.250000, 14.06564
8.270000, 7.117462
8.290000, 1.849472
8.310000, 3.226349
8.330000, 5.285919
8.350000, 3.670624
8.370000, 2.732147
8.390000, 3.695328
8.410000, 4.580338
8.430000, 6.664352
8.450000, 7.389847
8.470000, 4.636902
8.490000, 0.7580260
8.510000, 0.2126460
8.530000, 1.204315
8.550000, 4.202057
8.570000, 6.981110
8.590000, 9.293030
8.610000, 13.12997
8.630000, 15.20148
8.650000, 20.36441
8.670000, 24.12161
8.690000, 27.27878
8.710000, 29.31097
8.730000, 30.00699
8.750000, 30.73804
8.770000, 28.83911
8.790000, 27.53918
8.810000, 28.33020
8.830000, 27.42252
8.850000, 27.78503
8.870000, 31.16602
8.890000, 37.01312
8.910000, 40.23718
8.930000, 40.69513
8.950000, 40.95480
8.970000, 39.05295
8.990000, 36.26801
9.010000, 27.43582
9.030000, 28.44656
9.050000, 25.12589
9.070000, 21.81177
9.090000, 24.27817
9.110000, 24.79617
9.130000, 21.09174
9.150000, 20.28787
9.170000, 20.04660
9.190000, 21.70395
9.210000, 22.27481
9.230000, 22.10931
9.250000, 20.60641
9.270000, 15.06711
9.290000, 12.56641
9.310000, 9.682312
9.330000, 8.218689
9.350000, 8.516724
9.370000, 8.446808
9.390000, 11.03558
9.410000, 13.87137
9.430000, 15.96625
9.450000, 16.42227
9.470000, 18.52145
9.490000, 16.45898
9.510000, 12.06958
9.530000, 10.48523
9.550000, 7.813934
9.570000, 5.305176
9.590000, 3.934784
9.610000, 1.587982
9.630000, 0.8619690
9.650000, 0.1224370
9.670000, 0.5787050
9.690000, 0.1291500
9.710000, 0.5432430
9.730000, 3.601746
9.750000, 2.606424
9.770000, 7.580841
9.790000, 2.731934
9.810000, 1.994812
9.830000, 1.859161
9.850000, 4.332550
9.870000, 4.324036
9.890000, 0.1558530
9.910000, 2.872742
9.930000, 1.378723
9.950000, 0.5696410
9.970000, 4.328033
9.990000, 10.05450
10.01000, 14.50821
10.03000, 17.61060
10.05000, 27.13126
10.07000, 35.29205
10.09000, 43.67184
10.11000, 56.54993
10.13000, 62.47012
10.15000, 74.07147
10.17000, 86.07306
10.19000, 102.4499
10.21000, 122.5870
10.23000, 142.8964
10.25000, 160.7711
10.27000, 181.6792
10.29000, 201.5477
10.31000, 216.2635
10.33000, 223.8218
10.35000, 222.3935
10.37000, 215.3477
10.39000, 196.2754
10.41000, 172.4115
10.43000, 151.1948
10.45000, 131.7998
10.47000, 116.5277
10.49000, 104.2260
10.51000, 94.93326
10.53000, 91.02451
10.55000, 90.14587
10.57000, 88.72351
10.59000, 88.88577
10.61000, 87.33322
10.63000, 86.66428
10.65000, 83.20682
10.67000, 74.15286
10.69000, 66.02475
10.71000, 57.59641
10.73000, 51.96518
10.75000, 51.40085
10.77000, 52.47412
10.79000, 56.77634
10.81000, 56.60101
10.83000, 49.17206
10.85000, 42.78268
10.87000, 37.33273
10.89000, 29.52106
10.91000, 25.12204
10.93000, 21.99872
10.95000, 16.78806
10.97000, 14.32803
10.99000, 15.87369
11.01000, 13.43704
11.03000, 6.602051
11.05000, 3.543762
11.07000, 6.988159
11.09000, 9.681274
11.11000, 14.41104
11.13000, 25.20856
11.15000, 38.56772
11.17000, 52.21368
11.19000, 69.78430
11.21000, 93.80365
11.23000, 120.5537
11.25000, 143.4886
11.27000, 170.7711
11.29000, 203.3665
11.31000, 237.4166
11.33000, 273.9455
11.35000, 313.1892
11.37000, 348.4237
11.39000, 374.7971
11.41000, 393.5832
11.43000, 401.7002
11.45000, 408.0509
11.47000, 401.0634
11.49000, 383.3298
11.51000, 359.8770
11.53000, 325.4041
11.55000, 285.5439
11.57000, 253.2424
11.59000, 210.4459
11.61000, 171.8991
11.63000, 141.8701
11.65000, 118.6559
11.67000, 108.7395
11.69000, 110.6370
11.71000, 119.0543
11.73000, 135.3363
11.75000, 157.5661
11.77000, 179.3708
11.79000, 207.3553
11.81000, 231.7285
11.83000, 248.2965
11.85000, 268.1743
11.87000, 289.6180
11.89000, 308.9864
11.91000, 325.8954
11.93000, 335.8433
11.95000, 344.1400
11.97000, 357.8949
11.99000, 373.5168
12.01000, 394.3370
12.03000, 413.4922
12.05000, 420.7665
12.07000, 419.2564
12.09000, 405.2009
12.11000, 376.9362
12.13000, 342.5993
12.15000, 309.2277
12.17000, 281.6515
12.19000, 262.6013
12.21000, 240.1929
12.23000, 222.7940
12.25000, 208.4852
12.27000, 194.2628
12.29000, 186.9531
12.31000, 180.3442
12.33000, 181.3804
12.35000, 182.2276
12.37000, 194.4404
12.39000, 209.1990
12.41000, 223.9011
12.43000, 238.3924
12.45000, 254.9229
12.47000, 267.8483
12.49000, 273.4300
12.51000, 272.0763
12.53000, 260.2831
12.55000, 234.0892
12.57000, 201.2213
12.59000, 162.3243
12.61000, 122.1396
12.63000, 89.34894
12.65000, 63.61346
12.67000, 40.99362
12.69000, 23.74677
12.71000, 12.93619
12.73000, 8.028259
12.75000, 3.606354
12.77000, 1.046143
12.79000, 6.168579
12.81000, 10.56961
12.83000, 9.781921
12.85000, 7.254211
12.87000, 2.635742
12.89000, 1.236267
12.91000, 1.385559
12.93000, 2.919281
12.95000, 13.00476
12.97000, 25.76514
12.99000, 37.03403
13.01000, 46.19064
13.03000, 55.12262
13.05000, 58.16489
13.07000, 59.86450
13.09000, 62.80841
13.11000, 65.71851
13.13000, 69.80734
13.15000, 70.82010
13.17000, 78.40308
13.19000, 82.77823
13.21000, 85.60480
13.23000, 86.91315
13.25000, 87.13449
13.27000, 86.48309
13.29000, 83.92026
13.31000, 81.42212
13.33000, 78.48831
13.35000, 73.76730
13.37000, 71.47714
13.39000, 67.35602
13.41000, 64.18494
13.43000, 60.12286
13.45000, 50.07278
13.47000, 40.58868
13.49000, 34.85953
13.51000, 34.90231
13.53000, 33.72705
13.55000, 33.39966
13.57000, 33.50815
13.59000, 37.20749
13.61000, 42.35068
13.63000, 50.47675
13.65000, 56.95258
13.67000, 65.55121
13.69000, 77.09363
13.71000, 88.38776
13.73000, 92.99265
13.75000, 99.53125
13.77000, 106.2075
13.79000, 103.0895
13.81000, 101.3751
13.83000, 102.3163
13.85000, 97.64618
13.87000, 85.64963
13.89000, 73.37064
13.91000, 61.47214
13.93000, 51.44727
13.95000, 42.38684
13.97000, 36.92291
13.99000, 31.42548
14.01000, 23.12244
14.03000, 15.66486
14.05000, 14.45764
14.07000, 18.57782
14.09000, 19.94037
14.11000, 28.66028
14.13000, 43.26648
14.15000, 55.58194
14.17000, 64.21671
14.19000, 75.77072
14.21000, 89.99197
14.23000, 105.5304
14.25000, 121.4270
14.27000, 133.8139
14.29000, 139.4298
14.31000, 138.9809
14.33000, 137.1020
14.35000, 131.4417
14.37000, 124.0710
14.39000, 112.8821
14.41000, 100.1218
14.43000, 82.96078
14.45000, 71.79684
14.47000, 60.99887
14.49000, 47.10294
14.51000, 35.26108
14.53000, 25.69191
14.55000, 14.10707
14.57000, 2.524597
14.59000, 4.829483
14.61000, 7.009979
14.63000, 7.279678
14.65000, 4.627731
14.67000, 2.311249
14.69000, 2.433533
14.71000, 4.058578
14.73000, 4.968582
14.75000, 10.11121
14.77000, 14.69218
14.79000, 16.32463
14.81000, 17.23656
14.83000, 17.83420
14.85000, 20.49602
14.87000, 21.68376
14.89000, 20.41846
14.91000, 22.46893
14.93000, 24.10603
14.95000, 22.43849
14.97000, 20.00661
14.99000, 20.09187
15.01000, 21.11079
15.03000, 20.59084
15.05000, 21.28601
15.07000, 25.17125
15.09000, 22.00711
15.11000, 16.15102
15.13000, 14.28995
15.15000, 18.08937
15.17000, 26.65799
15.19000, 30.72501
15.21000, 32.35796
15.23000, 37.19296
15.25000, 41.87459
15.27000, 45.36562
15.29000, 50.02216
15.31000, 51.23642
15.33000, 50.32034
15.35000, 54.40344
15.37000, 60.18369
15.39000, 67.05801
15.41000, 73.86746
15.43000, 86.62097
15.45000, 104.9635
15.47000, 129.8871
15.49000, 168.7376
15.51000, 209.9481
15.53000, 274.2536
15.55000, 328.5300
15.57000, 398.8013
15.59000, 464.0654
15.61000, 529.2123
15.63000, 587.9001
15.65000, 622.7405
15.67000, 656.4760
15.69000, 667.2319
15.71000, 655.6747
15.73000, 638.6771
15.75000, 594.8180
15.77000, 542.9586
15.79000, 497.3119
15.81000, 436.2037
15.83000, 390.4702
15.85000, 334.7401
15.87000, 298.8056
15.89000, 252.6835
15.91000, 206.3459
15.93000, 165.1429
15.95000, 129.1593
15.97000, 100.0782
15.99000, 77.17160
16.01000, 60.58649
16.03000, 41.46187
16.05000, 26.78358
16.07000, 16.74959
16.09000, 11.15691
16.11000, 9.273499
16.13000, 8.060303
16.15000, 7.790359
16.17000, 8.886581
16.19000, 10.34201
16.21000, 10.04356
16.23000, 9.012299
16.25000, 9.383133
16.27000, 10.63007
16.29000, 16.07611
16.31000, 22.25720
16.33000, 27.58932
16.35000, 34.46347
16.37000, 42.12865
16.39000, 50.63078
16.41000, 56.93088
16.43000, 61.38492
16.45000, 69.86292
16.47000, 74.77078
16.49000, 76.27553
16.51000, 78.82916
16.53000, 78.16365
16.55000, 74.20894
16.57000, 71.49306
16.59000, 63.21698
16.61000, 50.42467
16.63000, 40.34410
16.65000, 36.43628
16.67000, 31.32018
16.69000, 23.91475
16.71000, 12.65602
16.73000, 6.430939
16.75000, 4.950851
16.77000, 8.278336
16.79000, 11.96901
16.81000, 15.39615
16.83000, 18.54387
16.85000, 22.56026
16.87000, 25.12143
16.89000, 28.25887
16.91000, 31.18544
16.93000, 32.76134
16.95000, 36.54765
16.97000, 35.66571
16.99000, 37.83357
17.01000, 38.97217
17.03000, 38.23982
17.05000, 35.24718
17.07000, 31.28996
17.09000, 26.69562
17.11000, 21.01564
17.13000, 16.24803
17.15000, 10.85576
17.17000, 5.073395
17.19000, 0.8848720
17.21000, 2.800339
17.23000, 5.859222
17.25000, 7.006409
17.27000, 7.951584
17.29000, 11.25626
17.31000, 15.34523
17.33000, 16.56764
17.35000, 13.46819
17.37000, 10.60628
17.39000, 10.16341
17.41000, 10.24243
17.43000, 8.304321
17.45000, 6.034134
17.47000, 3.155685
17.49000, 0.7329710
17.51000, 1.329773
17.53000, 5.112137
17.55000, 8.860825
17.57000, 12.47569
17.59000, 18.27295
17.61000, 21.88853
17.63000, 26.12720
17.65000, 29.89737
17.67000, 32.83362
17.69000, 32.33240
17.71000, 33.56413
17.73000, 34.85782
17.75000, 37.40468
17.77000, 41.85077
17.79000, 48.25728
17.81000, 53.08104
17.83000, 57.04698
17.85000, 61.07004
17.87000, 70.12312
17.89000, 81.78629
17.91000, 97.23647
17.93000, 111.2947
17.95000, 127.0100
17.97000, 141.8174
17.99000, 150.4507
18.01000, 157.4301
18.03000, 166.3924
18.05000, 169.8579
18.07000, 167.3313
18.09000, 160.2587
18.11000, 145.0042
18.13000, 127.7896
18.15000, 118.9971
18.17000, 111.2485
18.19000, 103.5780
18.21000, 94.19740
18.23000, 87.04587
18.25000, 79.80424
18.27000, 73.30806
18.29000, 66.01106
18.31000, 63.75548
18.33000, 60.79735
18.35000, 60.25040
18.37000, 62.30910
18.39000, 67.15836
18.41000, 69.62386
18.43000, 70.66530
18.45000, 68.98369
18.47000, 63.43005
18.49000, 56.02440
18.51000, 50.30168
18.53000, 48.66994
18.55000, 45.64319
18.57000, 41.63440
18.59000, 40.66258
18.61000, 39.44571
18.63000, 39.70082
18.65000, 37.13388
18.67000, 36.02493
18.69000, 33.90993
18.71000, 31.76590
18.73000, 30.62886
18.75000, 29.90077
18.77000, 32.49907
18.79000, 34.22252
18.81000, 41.23036
18.83000, 47.03316
18.85000, 55.04593
18.87000, 65.14964
18.89000, 76.18741
18.91000, 86.41110
18.93000, 95.80779
18.95000, 108.5390
18.97000, 120.8478
18.99000, 134.6747
19.01000, 148.6574
19.03000, 164.4070
19.05000, 179.6426
19.07000, 198.1463
19.09000, 217.1699
19.11000, 240.2025
19.13000, 258.4398
19.15000, 281.7927
19.17000, 303.2126
19.19000, 329.0553
19.21000, 353.0581
19.23000, 369.8704
19.25000, 377.9001
19.27000, 381.0528
19.29000, 377.3300
19.31000, 369.1712
19.33000, 352.4342
19.35000, 333.7939
19.37000, 310.7289
19.39000, 286.6041
19.41000, 256.0978
19.43000, 223.8656
19.45000, 196.4662
19.47000, 171.5772
19.49000, 148.4757
19.51000, 127.6093
19.53000, 109.2678
19.55000, 92.20061
19.57000, 78.56607
19.59000, 64.91344
19.61000, 55.97363
19.63000, 48.62323
19.65000, 41.14647
19.67000, 32.67928
19.69000, 27.25778
19.71000, 24.68013
19.73000, 23.16760
19.75000, 22.86890
19.77000, 23.49944
19.79000, 26.75171
19.81000, 28.30031
19.83000, 33.42609
19.85000, 41.39519
19.87000, 51.76903
19.89000, 62.50713
19.91000, 67.79250
19.93000, 70.69467
19.95000, 73.39105
19.97000, 76.46405
19.99000, 81.82710
20.01000, 93.34746
20.03000, 107.4455
20.05000, 121.7087
20.07000, 135.0715
20.09000, 157.4185
20.11000, 174.0171
20.13000, 205.7521
20.15000, 237.4948
20.17000, 267.4397
20.19000, 298.9511
20.21000, 325.6526
20.23000, 337.1857
20.25000, 342.1431
20.27000, 338.0144
20.29000, 328.5786
20.31000, 311.1258
20.33000, 288.8378
20.35000, 262.1347
20.37000, 227.7826
20.39000, 191.5584
20.41000, 161.6131
20.43000, 125.2627
20.45000, 96.04837
20.47000, 75.66292
20.49000, 60.48145
20.51000, 47.20990
20.53000, 37.08836
20.55000, 28.73979
20.57000, 23.75618
20.59000, 20.27158
20.61000, 17.74402
20.63000, 17.41544
20.65000, 16.76686
20.67000, 14.18196
20.69000, 12.26170
20.71000, 9.299347
20.73000, 6.447845
20.75000, 6.675430
20.77000, 7.272400
20.79000, 5.991043
20.81000, 11.21346
20.83000, 16.77197
20.85000, 21.91354
20.87000, 25.85419
20.89000, 29.81296
20.91000, 32.83881
20.93000, 37.59276
20.95000, 42.26080
20.97000, 45.17900
20.99000, 46.21735
21.01000, 48.63777
21.03000, 49.93037
21.05000, 51.45712
21.07000, 50.38603
21.09000, 48.03110
21.11000, 48.43034
21.13000, 45.06377
21.15000, 42.67336
21.17000, 43.46315
21.19000, 46.95915
21.21000, 48.89435
21.23000, 50.27876
21.25000, 51.72940
21.27000, 54.24529
21.29000, 61.99037
21.31000, 68.44972
21.33000, 70.53841
21.35000, 73.59885
21.37000, 70.52359
21.39000, 68.39143
21.41000, 65.92390
21.43000, 59.15013
21.45000, 51.26166
21.47000, 44.36650
21.49000, 36.24561
21.51000, 29.74208
21.53000, 25.98322
21.55000, 21.52617
21.57000, 15.56270
21.59000, 9.469620
21.61000, 3.974899
21.63000, 1.333282
21.65000, 1.911407
21.67000, 3.723282
21.69000, 3.323288
21.71000, 1.116119
21.73000, 2.206696
21.75000, 1.897507
21.77000, 7.768738
21.79000, 14.66028
21.81000, 23.51883
21.83000, 35.21935
21.85000, 53.78088
21.87000, 70.64838
21.89000, 86.24031
21.91000, 101.2009
21.93000, 112.6122
21.95000, 121.7657
21.97000, 132.2690
21.99000, 138.0062
22.01000, 131.7664
22.03000, 130.8292
22.05000, 131.6511
22.07000, 125.0423
22.09000, 119.4718
22.11000, 111.3135
22.13000, 98.58591
22.15000, 89.91211
22.17000, 77.30443
22.19000, 62.50475
22.21000, 50.39008
22.23000, 43.97496
22.25000, 36.54773
22.27000, 31.35674
22.29000, 28.12830
22.31000, 22.20880
22.33000, 12.87680
22.35000, 3.182800
22.37000, 2.249176
22.39000, 5.562286
22.41000, 8.807167
22.43000, 9.319580
22.45000, 7.833504
22.47000, 5.566383
22.49000, 2.113861
22.51000, 2.953545
22.53000, 3.128876
22.55000, 0.2739260
22.57000, 1.245773
22.59000, 2.321655
22.61000, 5.828827
22.63000, 10.73842
22.65000, 14.07254
22.67000, 20.25021
22.69000, 25.26440
22.71000, 31.19415
22.73000, 39.24443
22.75000, 45.53525
22.77000, 45.24165
22.79000, 44.44061
22.81000, 46.79111
22.83000, 45.08321
22.85000, 42.02283
22.87000, 41.30106
22.89000, 38.85484
22.91000, 35.87222
22.93000, 31.73119
22.95000, 23.85674
22.97000, 17.79388
22.99000, 13.58324
23.01000, 9.895569
23.03000, 7.131531
23.05000, 5.826874
23.07000, 5.373001
23.09000, 4.326714
23.11000, 6.089584
23.13000, 5.532524
23.15000, 5.822838
23.17000, 9.328201
23.19000, 13.41999
23.21000, 21.58849
23.23000, 28.05667
23.25000, 29.78252
23.27000, 30.43407
23.29000, 34.84129
23.31000, 38.75123
23.33000, 39.59683
23.35000, 41.11314
23.37000, 43.36116
23.39000, 44.44688
23.41000, 42.91132
23.43000, 41.87717
23.45000, 39.10551
23.47000, 35.41988
23.49000, 32.33121
23.51000, 26.63024
23.53000, 24.04800
23.55000, 18.49151
23.57000, 16.01356
23.59000, 14.00804
23.61000, 11.55946
23.63000, 11.35694
23.65000, 10.60518
23.67000, 9.689171
23.69000, 10.93291
23.71000, 11.23923
23.73000, 14.42699
23.75000, 18.44409
23.77000, 20.67662
23.79000, 20.73158
23.81000, 20.81509
23.83000, 27.14719
23.85000, 32.45102
23.87000, 35.52762
23.89000, 38.53327
23.91000, 37.09711
23.93000, 39.34601
23.95000, 36.42168
23.97000, 31.56210
23.99000, 29.94931
24.01000, 29.01192
24.03000, 28.41981
24.05000, 27.36674
24.07000, 25.98775
24.09000, 23.72780
24.11000, 14.61196
24.13000, 6.461021
24.15000, 5.312820
24.17000, 3.535851
24.19000, 0.6973190
24.21000, 0.6194690
24.23000, 8.3260000E-02
24.25000, 3.868546
24.27000, 4.046997
24.29000, 1.617210
24.31000, 7.6866001E-02
24.33000, 1.046806
24.35000, 4.684288
24.37000, 5.142654
24.39000, 6.241959
24.41000, 10.10815
24.43000, 18.06125
24.45000, 20.65523
24.47000, 19.48206
24.49000, 18.98375
24.51000, 19.75026
24.53000, 18.31857
24.55000, 17.47568
24.57000, 14.24356
24.59000, 12.17117
24.61000, 10.24953
24.63000, 7.260612
24.65000, 5.654388
24.67000, 3.628876
24.69000, 2.685677
24.71000, 0.2300870
24.73000, 1.378876
24.75000, 2.177826
24.77000, 1.031990
24.79000, 0.4443740
24.81000, 0.5783770
24.83000, 0.2105330
24.85000, 1.755005
24.87000, 1.849640
24.89000, 2.296158
24.91000, 6.571342
24.93000, 14.26417
24.95000, 22.39541
24.97000, 24.85413
24.99000, 26.68237
25.01000, 33.94801
25.03000, 43.28706
25.05000, 46.36103
25.07000, 45.02196
25.09000, 46.85383
25.11000, 43.55165
25.13000, 43.02245
25.15000, 43.67117
25.17000, 43.68188
25.19000, 44.26454
25.21000, 43.19318
25.23000, 39.51680
25.25000, 34.01639
25.27000, 23.38698
25.29000, 16.18754
25.31000, 11.69807
25.33000, 5.898621
25.35000, 2.512146
25.37000, 0.1336750
25.39000, 0.7031560
25.41000, 0.5143890
25.43000, 2.519920
25.45000, 2.486107
25.47000, 1.850861
25.49000, 1.339157
25.51000, 0.3940730
25.53000, 1.693794
25.55000, 5.377228
25.57000, 8.947975
25.59000, 10.73290
25.61000, 12.57287
25.63000, 17.51386
25.65000, 20.89989
25.67000, 30.48997
25.69000, 37.68307
25.71000, 45.66826
25.73000, 53.61348
25.75000, 60.54573
25.77000, 62.47005
25.79000, 64.74214
25.81000, 63.70169
25.83000, 61.51743
25.85000, 55.75304
25.87000, 48.96972
25.89000, 40.31149
25.91000, 35.50838
25.93000, 30.71962
25.95000, 25.09099
25.97000, 23.45855
25.99000, 17.56283
26.01000, 13.15922
26.03000, 12.30473
26.05000, 7.397369
26.07000, 1.329140
26.09000, 0.2609710
26.11000, 2.620178
26.13000, 9.3079001E-02
26.15000, 3.897034
26.17000, 1.910492
26.19000, 2.407509
26.21000, 0.9937060
26.23000, 1.310860
26.25000, 3.930573
26.27000, 4.122253
26.29000, 3.665077
26.31000, 6.530075
26.33000, 9.978233
26.35000, 7.176559
26.37000, 5.045036
26.39000, 7.092690
26.41000, 10.62573
26.43000, 16.38628
26.45000, 24.82429
26.47000, 35.19402
26.49000, 47.28305
26.51000, 62.28382
26.53000, 88.40659
26.55000, 113.6497
26.57000, 143.8032
26.59000, 169.8282
26.61000, 195.1909
26.63000, 212.9593
26.65000, 231.9678
26.67000, 249.1375
26.69000, 261.9123
26.71000, 263.4381
26.73000, 263.5858
26.75000, 251.1500
26.77000, 238.3195
26.79000, 229.5812
26.81000, 220.5132
26.83000, 206.4255
26.85000, 194.0450
26.87000, 174.4178
26.89000, 148.1579
26.91000, 130.0172
26.93000, 109.0407
26.95000, 89.99157
26.97000, 68.28171
26.99000, 53.20711
27.01000, 49.07677
27.03000, 44.21770
27.05000, 34.07491
27.07000, 25.30039
27.09000, 19.29725
27.11000, 12.38326
27.13000, 4.844559
27.15000, 1.892776
27.17000, 0.1711040
27.19000, 2.711746
27.21000, 1.941292
27.23000, 0.8694610
27.25000, 0.8063660
27.27000, 0.2426380
27.29000, 9.6198998E-02
27.31000, 0.6514050
27.33000, 2.811050
27.35000, 8.458389
27.37000, 14.29520
27.39000, 15.56549
27.41000, 18.75315
27.43000, 25.79010
27.45000, 26.88139
27.47000, 22.13599
27.49000, 27.48395
27.51000, 36.71825
27.53000, 43.92784
27.55000, 52.16580
27.57000, 65.25936
27.59000, 76.83752
27.61000, 89.52402
27.63000, 97.75487
27.65000, 102.8550
27.67000, 106.5124
27.69000, 113.2112
27.71000, 122.9682
27.73000, 136.0674
27.75000, 146.4240
27.77000, 150.9933
27.79000, 149.8950
27.81000, 147.7493
27.83000, 135.2080
27.85000, 131.3913
27.87000, 117.6867
27.89000, 103.9878
27.91000, 99.04292
27.93000, 87.80087
27.95000, 80.52605
27.97000, 74.31945
27.99000, 66.65707
28.01000, 60.67291
28.03000, 53.84398
28.05000, 49.89828
28.07000, 52.58379
28.09000, 49.62051
28.11000, 42.79147
28.13000, 37.11565
28.15000, 31.37517
28.17000, 26.33015
28.19000, 22.12723
28.21000, 17.80695
28.23000, 16.48155
28.25000, 15.72291
28.27000, 15.31168
28.29000, 19.10040
28.31000, 22.21936
28.33000, 28.08124
28.35000, 34.26598
28.37000, 39.03070
28.39000, 49.97020
28.41000, 60.81931
28.43000, 64.19863
28.45000, 68.31913
28.47000, 75.61789
28.49000, 76.92197
28.51000, 71.33761
28.53000, 67.17518
28.55000, 63.45264
28.57000, 63.42464
28.59000, 67.22408
28.61000, 68.79789
28.63000, 66.73497
28.65000, 68.28426
28.67000, 76.95277
28.69000, 80.39951
28.71000, 75.57946
28.73000, 72.65864
28.75000, 68.98003
28.77000, 65.13924
28.79000, 61.20663
28.81000, 56.93257
28.83000, 52.36671
28.85000, 47.82516
28.87000, 42.77179
28.89000, 37.57863
28.91000, 37.48167
28.93000, 38.20889
28.95000, 36.45430
28.97000, 29.47591
28.99000, 24.40784
29.01000, 23.65138
29.03000, 25.44778
29.05000, 28.35358
29.07000, 28.05614
29.09000, 24.90891
29.11000, 24.17444
29.13000, 29.96609
29.15000, 31.14780
29.17000, 34.37152
29.19000, 39.56125
29.21000, 41.79900
29.23000, 44.20271
29.25000, 46.41744
29.27000, 49.11595
29.29000, 50.30084
29.31000, 54.28350
29.33000, 56.82213
29.35000, 58.80173
29.37000, 56.20826
29.39000, 54.74577
29.41000, 66.08218
29.43000, 80.99752
29.45000, 88.47979
29.47000, 95.23898
29.49000, 104.0611
29.51000, 109.2514
29.53000, 109.8786
29.55000, 103.1977
29.57000, 97.43161
29.59000, 91.83704
29.61000, 87.14313
29.63000, 80.16649
29.65000, 75.07845
29.67000, 70.61895
29.69000, 66.55127
29.71000, 60.25787
29.73000, 54.74336
29.75000, 52.98970
29.77000, 48.46575
29.79000, 38.10603
29.81000, 27.52110
29.83000, 23.15421
29.85000, 20.20255
29.87000, 16.49153
29.89000, 10.61933
29.91000, 8.781548
29.93000, 3.180641
29.95000, 4.080360
29.97000, 2.545769
29.99000, 1.417290
30.01000, 2.480766
30.03000, 8.709984
30.05000, 10.41884
30.07000, 12.16624
30.09000, 13.29475
30.11000, 13.59335
30.13000, 8.511055
30.15000, 2.134880
30.17000, 5.567184
30.19000, 12.17439
30.21000, 7.523956
30.23000, 4.876709
30.25000, 5.185455
30.27000, 0.8654480
30.29000, 3.570351
30.31000, 6.460243
30.33000, 8.642242
30.35000, 10.47474
30.37000, 10.98594
30.39000, 12.21780
30.41000, 12.55864
30.43000, 13.16745
30.45000, 16.52222
30.47000, 16.24296
30.49000, 9.706673
30.51000, 8.872330
30.53000, 11.65524
30.55000, 16.95816
30.57000, 22.15028
30.59000, 18.93702
30.61000, 12.99640
30.63000, 10.71767
30.65000, 9.097313
30.67000, 8.857376
30.69000, 9.997452
30.71000, 11.78620
30.73000, 16.14570
30.75000, 18.82784
30.77000, 26.14427
30.79000, 32.51309
30.81000, 32.29868
30.83000, 34.83682
30.85000, 37.98312
30.87000, 40.36263
30.89000, 42.67950
30.91000, 35.67693
30.93000, 32.43097
30.95000, 40.51972
30.97000, 44.16072
30.99000, 46.95502
31.01000, 50.76518
31.03000, 50.22520
31.05000, 52.83702
31.07000, 53.77469
31.09000, 57.51855
31.11000, 55.91762
31.13000, 57.11456
31.15000, 59.50250
31.17000, 50.65745
31.19000, 36.50239
31.21000, 31.21433
31.23000, 25.89127
31.25000, 21.64720
31.27000, 14.76914
31.29000, 11.42606
31.31000, 13.22598
31.33000, 12.63289
31.35000, 6.507805
31.37000, 4.040710
31.39000, 3.086693
31.41000, 0.1072240
31.43000, 0.7479710
31.45000, 2.074722
31.47000, 2.159477
31.49000, 6.106903
31.51000, 8.972588
31.53000, 12.69961
31.55000, 13.12251
31.57000, 10.89725
31.59000, 14.45193
31.61000, 16.02362
31.63000, 11.50728
31.65000, 15.27883
31.67000, 18.60025
31.69000, 25.19045
31.71000, 30.44039
31.73000, 31.71590
31.75000, 27.78789
31.77000, 29.00621
31.79000, 36.44672
31.81000, 42.28731
31.83000, 43.71724
31.85000, 40.32059
31.87000, 39.47778
31.89000, 35.80394
31.91000, 36.35631
31.93000, 37.90201
31.95000, 40.58386
31.97000, 36.39926
31.99000, 30.07167
32.01000, 27.06718
32.03000, 28.03584
32.05000, 31.19315
32.07000, 27.46342
32.09000, 20.85790
32.11000, 13.89443
32.13000, 6.847946
32.15000, 3.660667
32.17000, 4.046608
32.19000, 7.016159
32.21000, 6.723877
32.23000, 4.318123
32.25000, 3.129410
32.27000, 4.649773
32.29000, 5.823364
32.31000, 3.625694
32.33000, 1.291206
32.35000, 1.408997
32.37000, 3.659050
32.39000, 4.113411
32.41000, 5.232361
32.43000, 9.051109
32.45000, 11.85582
32.47000, 15.99593
32.49000, 20.98505
32.51000, 26.23312
32.53000, 27.28017
32.55000, 25.72922
32.57000, 23.56007
32.59000, 23.78917
32.61000, 23.14331
32.63000, 19.40773
32.65000, 15.68889
32.67000, 11.42506
32.69000, 10.81444
32.71000, 11.65475
32.73000, 11.45660
32.75000, 13.95360
32.77000, 13.40620
32.79000, 15.94506
32.81000, 13.07175
32.83000, 15.19584
32.85000, 14.22736
32.87000, 12.31726
32.89000, 7.330566
32.91000, 6.810373
32.93000, 3.501335
32.95000, 4.061798
32.97000, 0.3747410
32.99000, 0.6496890
33.01000, 0.6196750
33.03000, 2.321808
33.05000, 0.3202670
33.07000, 2.879997
33.09000, 1.667870
33.11000, 1.377777
33.13000, 2.121643
33.15000, 0.9994130
33.17000, 0.5790180
33.19000, 1.656654
33.21000, 5.512688
33.23000, 1.091232
33.25000, 2.500610
33.27000, 1.930206
33.29000, 0.3772430
33.31000, 0.1499020
33.33000, 6.001236
33.35000, 5.124168
33.37000, 7.250786
33.39000, 14.04792
33.41000, 12.34666
33.43000, 13.77428
33.45000, 11.36516
33.47000, 12.82357
33.49000, 12.98573
33.51000, 13.74355
33.53000, 15.36775
33.55000, 16.23464
33.57000, 16.08199
33.59000, 12.59275
33.61000, 15.81305
33.63000, 16.92908
33.65000, 15.97406
33.67000, 20.52225
33.69000, 24.63581
33.71000, 21.78989
33.73000, 17.20159
33.75000, 17.00200
33.77000, 28.43356
33.79000, 43.12320
33.81000, 51.91011
33.83000, 56.07188
33.85000, 62.46541
33.87000, 62.60075
33.89000, 62.07356
33.91000, 53.08585
33.93000, 46.72472
33.95000, 42.69202
33.97000, 36.86469
33.99000, 33.00655
34.01000, 28.80931
34.03000, 24.62707
34.05000, 24.05627
34.07000, 21.37736
34.09000, 19.81266
34.11000, 21.01596
34.13000, 18.17874
34.15000, 18.13006
34.17000, 19.37646
34.19000, 15.87933
34.21000, 8.785706
34.23000, 8.535797
34.25000, 3.814911
34.27000, 0.7470170
34.29000, 2.194313
34.31000, 0.1780090
34.33000, 0.1469960
34.35000, 6.126060
34.37000, 7.074921
34.39000, 11.04503
34.41000, 14.05709
34.43000, 13.33103
34.45000, 15.31970
34.47000, 22.90184
34.49000, 23.77390
34.51000, 27.16558
34.53000, 22.48370
34.55000, 11.11081
34.57000, 4.716438
34.59000, 0.0000000E+00
##END=



