##NAMES=Karibibite
##RRUFFID=R060307
##IDEAL CHEMISTRY=Fe^3+^_3_(As^3+^O_2_)_4_(As^3+^_2_O_5_)(OH)
##LOCALITY=Urucum, Municipio de Galilea, Minas Gerais, Brazil
##OWNER=RRUFF
##SOURCE=Michael Scott
##DESCRIPTION=Yellowish-brown acicular crystals lining cavities
##DIFFRACTION SAMPLE DESCRIPTION=Powder, using Mo radiation
##STATUS=The identification of this mineral is not yet confirmed.
##URL=rruff.info/R060307
5.680000, 0.0000000E+00
5.710000, 13.55688
5.740000, 7.967773
5.770000, 25.41870
5.800000, 34.67090
5.830000, 36.56592
5.860000, 37.58154
5.890000, 36.25903
5.920000, 27.93115
5.950000, 38.11157
5.980000, 41.46924
6.010000, 41.48340
6.040000, 64.46216
6.070000, 112.5994
6.100000, 204.8560
6.130000, 341.7795
6.160000, 485.3076
6.190000, 674.7864
6.220000, 890.9922
6.250000, 1095.901
6.280000, 1313.028
6.310000, 1494.233
6.340000, 1665.023
6.370000, 1761.209
6.400000, 1758.682
6.430000, 1670.594
6.460000, 1537.212
6.490000, 1362.977
6.520000, 1186.819
6.550000, 987.2371
6.580000, 815.0420
6.610000, 629.1516
6.640000, 460.0847
6.670000, 321.0295
6.700000, 223.5947
6.730000, 129.1736
6.760000, 71.53882
6.790000, 39.39062
6.820000, 13.53687
6.850000, 10.72339
6.880000, 8.301025
6.910000, 3.320557
6.940000, 2.429932
6.970000, 2.520264
7.000000, 14.84277
7.030000, 23.09717
7.060000, 23.94385
7.090000, 19.08569
7.120000, 7.915527
7.150000, 9.480957
7.180000, 28.79248
7.210000, 59.50977
7.240000, 75.31299
7.270000, 81.81152
7.300000, 110.8660
7.330000, 145.0657
7.360000, 183.9907
7.390000, 229.1113
7.420000, 260.5469
7.450000, 270.8376
7.480000, 288.1780
7.510000, 300.6960
7.540000, 306.6250
7.570000, 284.6750
7.600000, 265.0569
7.630000, 254.2498
7.660000, 232.3330
7.690000, 192.8352
7.720000, 159.4656
7.750000, 129.6025
7.780000, 97.69629
7.810000, 72.21289
7.840000, 54.39185
7.870000, 28.93188
7.900000, 0.8332520
7.930000, 23.74292
7.960000, 28.43628
7.990000, 13.22607
8.020000, 10.59229
8.050000, 10.45508
8.080000, 0.9626460
8.110000, 5.805176
8.140000, 29.00415
8.170000, 53.58325
8.200000, 76.52588
8.230000, 116.2581
8.260000, 162.5703
8.290000, 205.9231
8.320000, 257.7769
8.350000, 295.4988
8.380000, 364.6018
8.410000, 416.2957
8.440000, 468.4993
8.470000, 500.8035
8.500000, 508.4570
8.530000, 519.4514
8.560000, 530.2556
8.590000, 543.8298
8.620000, 554.7520
8.650000, 524.6655
8.680000, 502.4663
8.710000, 488.1873
8.740000, 463.6885
8.770000, 418.0398
8.800000, 373.5908
8.830000, 353.3723
8.860000, 330.8235
8.890000, 307.8147
8.920000, 280.9153
8.950000, 253.2859
8.980000, 224.3760
9.010000, 210.4954
9.040000, 201.4944
9.070000, 181.1826
9.100000, 168.9001
9.130000, 174.1370
9.160000, 165.3735
9.190000, 155.6899
9.220000, 150.2161
9.250000, 144.7122
9.280000, 127.1594
9.310000, 87.73413
9.340000, 53.26611
9.370000, 46.47852
9.400000, 43.08740
9.430000, 35.29614
9.460000, 27.50586
9.490000, 28.17041
9.520000, 28.88843
9.550000, 33.72974
9.580000, 40.83130
9.610000, 45.82690
9.640000, 39.80054
9.670000, 26.32617
9.700000, 14.39624
9.730000, 5.124023
9.760000, 3.197998
9.790000, 2.618652
9.820000, 4.526123
9.850000, 1.536621
9.880000, 16.13599
9.910000, 18.98950
9.940000, 13.03125
9.970000, 23.48438
10.00000, 44.71509
10.03000, 61.50122
10.06000, 82.31274
10.09000, 99.05908
10.12000, 113.4600
10.15000, 127.8557
10.18000, 132.9460
10.21000, 128.4705
10.24000, 123.0186
10.27000, 121.9905
10.30000, 119.7458
10.33000, 113.6943
10.36000, 110.3862
10.39000, 99.51074
10.42000, 91.65259
10.45000, 77.04102
10.48000, 65.57837
10.51000, 66.51270
10.54000, 65.49072
10.57000, 57.49512
10.60000, 53.90503
10.63000, 40.95410
10.66000, 34.63330
10.69000, 34.81982
10.72000, 24.43408
10.75000, 22.70898
10.78000, 30.77832
10.81000, 35.66968
10.84000, 37.76245
10.87000, 42.92676
10.90000, 53.68213
10.93000, 66.68848
10.96000, 70.31543
10.99000, 79.32349
11.02000, 92.34204
11.05000, 109.2507
11.08000, 118.6702
11.11000, 132.6296
11.14000, 157.8596
11.17000, 185.6091
11.20000, 219.2683
11.23000, 252.0581
11.26000, 281.7476
11.29000, 313.5752
11.32000, 344.5149
11.35000, 374.1123
11.38000, 407.7393
11.41000, 438.2854
11.44000, 463.6606
11.47000, 494.3557
11.50000, 528.5593
11.53000, 554.5269
11.56000, 574.5881
11.59000, 587.8376
11.62000, 596.6235
11.65000, 596.4929
11.68000, 596.5952
11.71000, 579.8430
11.74000, 566.4797
11.77000, 546.6760
11.80000, 546.2615
11.83000, 563.7761
11.86000, 597.3594
11.89000, 637.9016
11.92000, 685.0627
11.95000, 746.8328
11.98000, 810.8813
12.01000, 866.7080
12.04000, 919.8833
12.07000, 956.3767
12.10000, 975.6689
12.13000, 960.1987
12.16000, 921.9062
12.19000, 881.7119
12.22000, 845.5554
12.25000, 801.2068
12.28000, 763.8357
12.31000, 743.2422
12.34000, 703.0862
12.37000, 665.8975
12.40000, 646.3359
12.43000, 641.1018
12.46000, 675.2942
12.49000, 744.4165
12.52000, 858.0425
12.55000, 1025.476
12.58000, 1218.107
12.61000, 1439.853
12.64000, 1691.914
12.67000, 1956.717
12.70000, 2191.065
12.73000, 2417.666
12.76000, 2602.069
12.79000, 2735.082
12.82000, 2801.009
12.85000, 2812.822
12.88000, 2774.802
12.91000, 2693.991
12.94000, 2584.203
12.97000, 2461.399
13.00000, 2352.209
13.03000, 2276.273
13.06000, 2223.272
13.09000, 2187.884
13.12000, 2178.406
13.15000, 2198.270
13.18000, 2231.036
13.21000, 2276.062
13.24000, 2309.638
13.27000, 2315.423
13.30000, 2289.948
13.33000, 2236.580
13.36000, 2151.617
13.39000, 2034.906
13.42000, 1889.305
13.45000, 1740.634
13.48000, 1571.260
13.51000, 1409.802
13.54000, 1244.180
13.57000, 1107.827
13.60000, 988.4795
13.63000, 892.3489
13.66000, 809.7749
13.69000, 733.6978
13.72000, 677.5466
13.75000, 637.9121
13.78000, 605.4736
13.81000, 587.4814
13.84000, 572.5251
13.87000, 555.1443
13.90000, 561.5898
13.93000, 574.6406
13.96000, 575.1670
13.99000, 568.1787
14.02000, 557.9561
14.05000, 545.7341
14.08000, 533.1321
14.11000, 533.1079
14.14000, 534.0530
14.17000, 542.8408
14.20000, 558.5520
14.23000, 574.3511
14.26000, 602.1553
14.29000, 630.2146
14.32000, 659.3259
14.35000, 693.9958
14.38000, 736.6362
14.41000, 777.4795
14.44000, 815.5759
14.47000, 840.6467
14.50000, 860.0247
14.53000, 875.5686
14.56000, 873.8643
14.59000, 872.2520
14.62000, 859.4314
14.65000, 844.5828
14.68000, 808.0359
14.71000, 761.6812
14.74000, 696.4780
14.77000, 627.0862
14.80000, 566.1853
14.83000, 497.6763
14.86000, 437.1277
14.89000, 415.3398
14.92000, 404.1331
14.95000, 407.3372
14.98000, 421.5845
15.01000, 444.6365
15.04000, 487.4514
15.07000, 542.0471
15.10000, 605.6428
15.13000, 669.7114
15.16000, 722.9937
15.19000, 760.5466
15.22000, 778.5706
15.25000, 763.3347
15.28000, 725.3782
15.31000, 676.2415
15.34000, 609.2832
15.37000, 536.3745
15.40000, 456.5142
15.43000, 373.4331
15.46000, 288.4502
15.49000, 219.0264
15.52000, 168.3308
15.55000, 130.4836
15.58000, 99.50439
15.61000, 68.69360
15.64000, 50.67358
15.67000, 30.42554
15.70000, 29.57788
15.73000, 25.72803
15.76000, 30.93579
15.79000, 44.52075
15.82000, 53.86304
15.85000, 72.84277
15.88000, 115.9390
15.91000, 170.4121
15.94000, 211.8225
15.97000, 244.9792
16.00000, 282.3726
16.03000, 314.8926
16.06000, 332.6462
16.09000, 336.3472
16.12000, 325.3518
16.15000, 296.0649
16.18000, 270.3086
16.21000, 241.5825
16.24000, 201.1948
16.27000, 162.4861
16.30000, 118.9041
16.33000, 76.52344
16.36000, 40.58350
16.39000, 16.67261
16.42000, 8.622803
16.45000, 22.58057
16.48000, 31.08203
16.51000, 35.78198
16.54000, 30.83130
16.57000, 24.54468
16.60000, 11.62622
16.63000, 14.34399
16.66000, 49.51221
16.69000, 98.61377
16.72000, 151.2312
16.75000, 214.0681
16.78000, 288.5168
16.81000, 363.9985
16.84000, 457.1362
16.87000, 554.9980
16.90000, 666.3938
16.93000, 768.4187
16.96000, 838.9888
16.99000, 895.3296
17.02000, 952.7434
17.05000, 986.5483
17.08000, 1007.721
17.11000, 1010.889
17.14000, 999.5757
17.17000, 978.8923
17.20000, 949.9958
17.23000, 909.8225
17.26000, 860.9089
17.29000, 803.6128
17.32000, 735.5952
17.35000, 662.4370
17.38000, 591.7769
17.41000, 519.0552
17.44000, 454.8726
17.47000, 391.2976
17.50000, 315.8914
17.53000, 246.1028
17.56000, 185.3225
17.59000, 133.5103
17.62000, 88.05518
17.65000, 38.76782
17.68000, 6.687744
17.71000, 23.97485
17.74000, 46.83301
17.77000, 55.28882
17.80000, 51.42700
17.83000, 43.38599
17.86000, 42.09155
17.89000, 31.60425
17.92000, 6.387695
17.95000, 18.29956
17.98000, 46.68286
18.01000, 71.02197
18.04000, 95.69971
18.07000, 111.9971
18.10000, 125.8711
18.13000, 133.1687
18.16000, 138.8572
18.19000, 133.8711
18.22000, 126.1807
18.25000, 111.8652
18.28000, 102.3274
18.31000, 105.5186
18.34000, 96.79858
18.37000, 90.43335
18.40000, 85.56323
18.43000, 77.76782
18.46000, 72.80640
18.49000, 62.98047
18.52000, 54.58838
18.55000, 45.32104
18.58000, 37.19800
18.61000, 31.99927
18.64000, 31.20435
18.67000, 28.37378
18.70000, 32.72681
18.73000, 37.62402
18.76000, 47.11499
18.79000, 52.79980
18.82000, 51.13770
18.85000, 55.07910
18.88000, 65.09448
18.91000, 82.29272
18.94000, 106.2246
18.97000, 129.2595
19.00000, 160.8274
19.03000, 198.4385
19.06000, 236.8523
19.09000, 275.1995
19.12000, 312.8188
19.15000, 345.8816
19.18000, 354.7363
19.21000, 353.9646
19.24000, 350.9749
19.27000, 334.7773
19.30000, 313.8826
19.33000, 289.5198
19.36000, 255.7197
19.39000, 224.4316
19.42000, 198.9658
19.45000, 175.5818
19.48000, 140.9001
19.51000, 109.9202
19.54000, 87.39209
19.57000, 64.50610
19.60000, 37.26147
19.63000, 14.32837
19.66000, 2.308350
19.69000, 21.29614
19.72000, 19.50513
19.75000, 8.204834
19.78000, 7.898682
19.81000, 4.078125
19.84000, 8.558594
19.87000, 1.865234
19.90000, 2.240967
19.93000, 3.899170
19.96000, 4.161133
19.99000, 0.2805180
20.02000, 0.4848630
20.05000, 1.919189
20.08000, 3.256592
20.11000, 4.684326
20.14000, 0.3164060
20.17000, 0.4494630
20.20000, 3.354248
20.23000, 1.465820
20.26000, 2.748779
20.29000, 2.580078
20.32000, 0.3479000
20.35000, 5.363281
20.38000, 12.49512
20.41000, 13.68604
20.44000, 14.56958
20.47000, 21.60156
20.50000, 33.99902
20.53000, 51.73657
20.56000, 75.67285
20.59000, 97.35889
20.62000, 123.7009
20.65000, 160.7705
20.68000, 192.8977
20.71000, 224.8589
20.74000, 263.4998
20.77000, 304.7705
20.80000, 351.7603
20.83000, 402.2803
20.86000, 441.9399
20.89000, 484.6389
20.92000, 499.7356
20.95000, 520.2461
20.98000, 506.3740
21.01000, 486.6418
21.04000, 461.0588
21.07000, 440.5361
21.10000, 416.3369
21.13000, 392.1995
21.16000, 369.4360
21.19000, 347.4316
21.22000, 326.9373
21.25000, 301.5522
21.28000, 288.0776
21.31000, 269.8425
21.34000, 261.7383
21.37000, 261.6724
21.40000, 253.4392
21.43000, 244.3928
21.46000, 228.6501
21.49000, 205.2803
21.52000, 180.3457
21.55000, 151.8438
21.58000, 133.7432
21.61000, 122.2034
21.64000, 107.5750
21.67000, 90.69727
21.70000, 75.22095
21.73000, 68.45532
21.76000, 63.93091
21.79000, 54.71777
21.82000, 48.71582
21.85000, 44.40454
21.88000, 49.46460
21.91000, 72.48486
21.94000, 95.04712
21.97000, 107.3501
22.00000, 118.0352
22.03000, 120.5212
22.06000, 129.4089
22.09000, 142.5381
22.12000, 155.6887
22.15000, 167.0608
22.18000, 169.8845
22.21000, 176.7102
22.24000, 190.7375
22.27000, 206.5767
22.30000, 225.5071
22.33000, 248.2202
22.36000, 278.8945
22.39000, 305.8713
22.42000, 341.4202
22.45000, 378.1912
22.48000, 410.8345
22.51000, 435.0198
22.54000, 452.2473
22.57000, 462.3816
22.60000, 476.1001
22.63000, 459.3450
22.66000, 446.8530
22.69000, 424.8433
22.72000, 386.7163
22.75000, 352.1719
22.78000, 314.7302
22.81000, 275.6816
22.84000, 235.1958
22.87000, 206.9229
22.90000, 185.9631
22.93000, 168.8452
22.96000, 168.3723
22.99000, 159.1919
23.02000, 162.0947
23.05000, 175.8306
23.08000, 179.5898
23.11000, 184.8525
23.14000, 211.7983
23.17000, 246.4680
23.20000, 283.7007
23.23000, 323.9800
23.26000, 347.7812
23.29000, 361.9688
23.32000, 373.3977
23.35000, 379.0752
23.38000, 388.9529
23.41000, 393.3511
23.44000, 393.7500
23.47000, 390.8020
23.50000, 376.1814
23.53000, 354.9099
23.56000, 329.4485
23.59000, 305.1108
23.62000, 277.9702
23.65000, 244.2158
23.68000, 212.7625
23.71000, 182.2212
23.74000, 152.8059
23.77000, 125.4062
23.80000, 99.43604
23.83000, 75.08325
23.86000, 53.80591
23.89000, 33.44922
23.92000, 15.07227
23.95000, 1.859375
23.98000, 14.25708
24.01000, 29.19287
24.04000, 37.22217
24.07000, 44.03638
24.10000, 48.15308
24.13000, 46.31934
24.16000, 51.35986
24.19000, 41.37817
24.22000, 32.39307
24.25000, 20.54858
24.28000, 4.098633
24.31000, 24.52539
24.34000, 61.40063
24.37000, 110.5042
24.40000, 161.6968
24.43000, 206.1274
24.46000, 253.2971
24.49000, 297.3755
24.52000, 328.1929
24.55000, 368.2188
24.58000, 393.6140
24.61000, 405.8381
24.64000, 414.1516
24.67000, 411.4841
24.70000, 392.1562
24.73000, 377.9575
24.76000, 355.9482
24.79000, 334.7888
24.82000, 332.1687
24.85000, 333.0085
24.88000, 322.3281
24.91000, 313.7642
24.94000, 298.3918
24.97000, 269.0049
25.00000, 239.2017
25.03000, 209.6399
25.06000, 183.6101
25.09000, 164.5996
25.12000, 152.5522
25.15000, 143.7852
25.18000, 138.2490
25.21000, 130.4233
25.24000, 131.4883
25.27000, 128.3638
25.30000, 137.5811
25.33000, 146.0620
25.36000, 153.5674
25.39000, 165.5676
25.42000, 176.8096
25.45000, 185.0308
25.48000, 193.6399
25.51000, 211.1365
25.54000, 219.9543
25.57000, 223.3035
25.60000, 218.2144
25.63000, 210.4270
25.66000, 209.0027
25.69000, 200.2202
25.72000, 184.2395
25.75000, 185.3511
25.78000, 179.4348
25.81000, 166.3816
25.84000, 164.1453
25.87000, 162.7090
25.90000, 154.8132
25.93000, 153.9258
25.96000, 168.2463
25.99000, 188.2844
26.02000, 213.8787
26.05000, 236.8176
26.08000, 256.4402
26.11000, 289.3389
26.14000, 329.1255
26.17000, 369.2114
26.20000, 425.2632
26.23000, 480.7200
26.26000, 537.9207
26.29000, 594.6763
26.32000, 645.5669
26.35000, 702.8416
26.38000, 757.4792
26.41000, 797.1201
26.44000, 804.1145
26.47000, 797.1926
26.50000, 781.7842
26.53000, 760.7690
26.56000, 721.3279
26.59000, 662.7998
26.62000, 605.8855
26.65000, 555.9651
26.68000, 513.3792
26.71000, 479.4065
26.74000, 458.8276
26.77000, 448.1628
26.80000, 443.9524
26.83000, 447.5085
26.86000, 450.4849
26.89000, 448.5469
26.92000, 438.1846
26.95000, 423.2441
26.98000, 415.8770
27.01000, 393.8306
27.04000, 364.1670
27.07000, 328.4048
27.10000, 276.0425
27.13000, 230.8999
27.16000, 199.8293
27.19000, 168.1396
27.22000, 124.6711
27.25000, 89.86426
27.28000, 75.50732
27.31000, 72.46216
27.34000, 66.99731
27.37000, 65.13306
27.40000, 70.67822
27.43000, 74.53369
27.46000, 81.76855
27.49000, 91.84375
27.52000, 98.57959
27.55000, 103.2961
27.58000, 106.9771
27.61000, 111.5581
27.64000, 117.6135
27.67000, 121.9365
27.70000, 126.8452
27.73000, 126.1206
27.76000, 122.1418
27.79000, 113.1738
27.82000, 100.9541
27.85000, 94.65308
27.88000, 98.84399
27.91000, 98.48120
27.94000, 93.44507
27.97000, 95.22485
28.00000, 88.42188
28.03000, 78.68530
28.06000, 69.66479
28.09000, 67.11108
28.12000, 72.34399
28.15000, 82.17358
28.18000, 95.68018
28.21000, 129.1628
28.24000, 179.8723
28.27000, 245.1582
28.30000, 314.8308
28.33000, 382.0300
28.36000, 442.8459
28.39000, 501.1389
28.42000, 561.4082
28.45000, 596.8450
28.48000, 627.2378
28.51000, 648.5271
28.54000, 659.3535
28.57000, 650.4463
28.60000, 604.7954
28.63000, 555.2917
28.66000, 495.8743
28.69000, 431.5928
28.72000, 375.9382
28.75000, 319.8799
28.78000, 265.2183
28.81000, 228.3323
28.84000, 205.6033
28.87000, 183.0710
28.90000, 174.1609
28.93000, 166.3359
28.96000, 152.6082
28.99000, 149.2825
29.02000, 164.3889
29.05000, 184.3860
29.08000, 187.3032
29.11000, 195.8999
29.14000, 213.9854
29.17000, 217.0698
29.20000, 221.1033
29.23000, 235.1116
29.26000, 240.8777
29.29000, 241.9238
29.32000, 242.3567
29.35000, 243.8857
29.38000, 241.4907
29.41000, 240.8071
29.44000, 247.0542
29.47000, 251.2695
29.50000, 240.3584
29.53000, 228.5662
29.56000, 220.6912
29.59000, 214.4570
29.62000, 203.9441
29.65000, 184.6487
29.68000, 163.7847
29.71000, 136.5068
29.74000, 118.9385
29.77000, 108.9849
29.80000, 99.43311
29.83000, 82.12793
29.86000, 66.78052
29.89000, 56.67017
29.92000, 58.79614
29.95000, 60.51660
29.98000, 52.93213
30.01000, 53.10278
30.04000, 52.59839
30.07000, 56.06885
30.10000, 65.17432
30.13000, 79.87500
30.16000, 103.8103
30.19000, 123.1807
30.22000, 141.7058
30.25000, 165.5056
30.28000, 181.9307
30.31000, 205.4604
30.34000, 228.8950
30.37000, 249.9041
30.40000, 264.9780
30.43000, 271.7363
30.46000, 275.5901
30.49000, 275.2781
30.52000, 259.1108
30.55000, 237.2383
30.58000, 208.0601
30.61000, 187.5566
30.64000, 175.0977
30.67000, 154.1731
30.70000, 132.3225
30.73000, 117.7363
30.76000, 102.6243
30.79000, 93.12573
30.82000, 92.00122
30.85000, 79.51099
30.88000, 63.70410
30.91000, 44.57129
30.94000, 34.87183
30.97000, 33.00635
31.00000, 32.00439
31.03000, 23.14600
31.06000, 22.22119
31.09000, 21.50952
31.12000, 18.92114
31.15000, 19.39697
31.18000, 18.22046
31.21000, 13.91431
31.24000, 16.56177
31.27000, 38.93384
31.30000, 57.04175
31.33000, 64.82422
31.36000, 73.98340
31.39000, 78.14600
31.42000, 68.31982
31.45000, 62.96167
31.48000, 57.20605
31.51000, 54.82324
31.54000, 53.64746
31.57000, 52.03149
31.60000, 56.49219
31.63000, 53.51025
31.66000, 58.50146
31.69000, 62.59473
31.72000, 64.45117
31.75000, 67.90967
31.78000, 72.99048
31.81000, 75.60425
31.84000, 79.18921
31.87000, 82.70850
31.90000, 85.11914
31.93000, 88.18213
31.96000, 87.75317
31.99000, 87.06470
32.02000, 85.21411
32.05000, 81.39380
32.08000, 78.35986
32.11000, 70.09521
32.14000, 67.03271
32.17000, 59.93237
32.20000, 44.52417
32.23000, 31.70752
32.26000, 21.32251
32.29000, 17.66943
32.32000, 18.64819
32.35000, 18.15869
32.38000, 13.78052
32.41000, 7.733887
32.44000, 5.445557
32.47000, 16.82373
32.50000, 18.51294
32.53000, 17.93433
32.56000, 8.772949
32.59000, 4.568115
32.62000, 13.42896
32.65000, 14.83057
32.68000, 24.51221
32.71000, 24.67578
32.74000, 14.59497
32.77000, 2.695557
32.80000, 4.563232
32.83000, 0.2275390
32.86000, 5.025391
32.89000, 6.145508
32.92000, 6.746826
32.95000, 4.541748
32.98000, 18.99219
33.01000, 28.84204
33.04000, 32.64624
33.07000, 23.00708
33.10000, 20.94922
33.13000, 19.50269
33.16000, 14.05566
33.19000, 6.066162
33.22000, 1.790771
33.25000, 11.24658
33.28000, 20.18921
33.31000, 20.73242
33.34000, 13.77759
33.37000, 3.580322
33.40000, 0.8659670
33.43000, 4.503662
33.46000, 4.915039
33.49000, 0.1394040
33.52000, 10.85229
33.55000, 46.40503
33.58000, 36.84229
33.61000, 56.48926
33.64000, 32.76074
33.67000, 29.46191
33.70000, 22.98267
33.73000, 28.62305
33.76000, 44.35303
33.79000, 65.07227
33.82000, 81.41089
33.85000, 96.36914
33.88000, 114.6167
33.91000, 133.1633
33.94000, 145.1697
33.97000, 161.6675
34.00000, 169.6399
34.03000, 187.4438
34.06000, 197.6272
34.09000, 205.8491
34.12000, 201.7156
34.15000, 191.1934
34.18000, 173.4492
34.21000, 158.3616
34.24000, 155.1536
34.27000, 153.4114
34.30000, 147.6372
34.33000, 139.2397
34.36000, 133.7451
34.39000, 118.2976
34.42000, 104.6792
34.45000, 92.91943
34.48000, 84.15894
34.51000, 77.24683
34.54000, 67.86353
34.57000, 65.75952
34.60000, 64.85376
34.63000, 66.40698
34.66000, 74.03906
34.69000, 84.55981
34.72000, 84.50903
34.75000, 81.20752
34.78000, 91.44409
34.81000, 92.51929
34.84000, 89.02295
34.87000, 92.34521
34.90000, 87.41577
34.93000, 83.85449
34.96000, 80.94067
34.99000, 72.97705
35.02000, 69.01001
35.05000, 62.70166
35.08000, 52.06079
35.11000, 40.85815
35.14000, 43.07349
35.17000, 52.72656
35.20000, 51.48755
35.23000, 42.02661
35.26000, 37.89380
35.29000, 38.45850
35.32000, 46.94092
35.35000, 59.19141
35.38000, 68.12964
35.41000, 79.74561
35.44000, 91.93774
35.47000, 95.14136
35.50000, 117.6904
35.53000, 135.9075
35.56000, 150.9126
35.59000, 156.1753
35.62000, 147.2854
35.65000, 137.2534
35.68000, 133.8091
35.71000, 129.5522
35.74000, 121.5029
35.77000, 113.9814
35.80000, 112.3374
35.83000, 97.06104
35.86000, 88.15210
35.89000, 66.04053
35.92000, 41.73682
35.95000, 30.49048
35.98000, 24.59204
36.01000, 15.76074
36.04000, 12.21655
36.07000, 12.77368
36.10000, 9.228271
36.13000, 1.819092
36.16000, 3.855957
36.19000, 7.286377
36.22000, 4.527832
36.25000, 1.119141
36.28000, 0.9384770
36.31000, 0.4877930
36.34000, 0.8989260
36.37000, 1.661377
36.40000, 10.20825
36.43000, 28.63013
36.46000, 38.51636
36.49000, 32.03491
36.52000, 28.19043
36.55000, 26.98389
36.58000, 25.18896
36.61000, 21.24731
36.64000, 20.30103
36.67000, 23.77441
36.70000, 22.99194
36.73000, 18.96631
36.76000, 13.93311
36.79000, 16.56274
36.82000, 17.00464
36.85000, 23.23462
36.88000, 24.81934
36.91000, 32.00757
36.94000, 42.61426
36.97000, 48.50342
37.00000, 52.74878
37.03000, 48.25903
37.06000, 47.44653
37.09000, 45.28125
37.12000, 51.06421
37.15000, 51.98340
37.18000, 55.64893
37.21000, 60.16309
37.24000, 63.40918
37.27000, 69.31323
37.30000, 71.91553
37.33000, 70.23633
37.36000, 65.58569
37.39000, 55.53320
37.42000, 45.55884
37.45000, 41.15308
37.48000, 39.53491
37.51000, 35.34546
37.54000, 29.23462
37.57000, 23.21167
37.60000, 13.59692
37.63000, 8.130615
37.66000, 2.842285
37.69000, 5.512207
37.72000, 2.946777
37.75000, 2.981689
37.78000, 4.887939
37.81000, 5.749023
37.84000, 7.529053
37.87000, 13.15869
37.90000, 17.33984
37.93000, 19.79248
37.96000, 18.51611
37.99000, 23.27148
38.02000, 27.71777
38.05000, 34.87476
38.08000, 33.51050
38.11000, 35.12524
38.14000, 37.46851
38.17000, 39.09937
38.20000, 39.27148
38.23000, 33.42725
38.26000, 38.27417
38.29000, 32.03882
38.32000, 29.41211
38.35000, 34.11353
38.38000, 40.46338
38.41000, 56.53125
38.44000, 64.63843
38.47000, 71.20386
38.50000, 89.45801
38.53000, 102.0706
38.56000, 105.5317
38.59000, 110.9812
38.62000, 117.8291
38.65000, 121.6550
38.68000, 124.6699
38.71000, 126.5833
38.74000, 127.5049
38.77000, 129.1853
38.80000, 127.5447
38.83000, 130.7827
38.86000, 130.6697
38.89000, 126.7253
38.92000, 118.9695
38.95000, 104.4424
38.98000, 93.92407
39.01000, 93.84424
39.04000, 83.33276
39.07000, 78.66992
39.10000, 73.11548
39.13000, 63.06982
39.16000, 57.35229
39.19000, 52.49951
39.22000, 40.83325
39.25000, 45.22192
39.28000, 39.67896
39.31000, 37.84473
39.34000, 45.38867
39.37000, 36.43140
39.40000, 30.63281
39.43000, 24.96289
39.46000, 27.19141
39.49000, 21.60864
39.52000, 23.23438
39.55000, 18.61914
39.58000, 13.94263
39.61000, 12.84937
39.64000, 17.13428
39.67000, 7.466797
39.70000, 4.168701
39.73000, 8.504150
39.76000, 14.10864
39.79000, 19.97339
39.82000, 21.71729
39.85000, 12.24121
39.88000, 1.813232
39.91000, 16.48950
39.94000, 15.23877
39.97000, 10.17261
40.00000, 11.94971
40.03000, 9.137207
40.06000, 0.5498050
40.09000, 8.976318
40.12000, 11.42139
40.15000, 10.56763
40.18000, 16.14771
40.21000, 13.87476
40.24000, 19.07910
40.27000, 26.49976
40.30000, 33.38501
40.33000, 26.94678
40.36000, 26.56519
40.39000, 30.67749
40.42000, 34.46045
40.45000, 36.15576
40.48000, 40.37598
40.51000, 43.49170
40.54000, 48.19067
40.57000, 41.88086
40.60000, 44.02148
40.63000, 51.46509
40.66000, 56.00024
40.69000, 63.14746
40.72000, 64.17432
40.75000, 64.47070
40.78000, 62.66626
40.81000, 63.65112
40.84000, 63.25562
40.87000, 67.01953
40.90000, 75.06299
40.93000, 83.64575
40.96000, 83.29810
40.99000, 78.74976
41.02000, 75.54126
41.05000, 74.72217
41.08000, 68.12231
41.11000, 58.43188
41.14000, 45.40112
41.17000, 43.64966
41.20000, 37.80713
41.23000, 36.91553
41.26000, 35.43311
41.29000, 36.21484
41.32000, 38.28735
41.35000, 39.89795
41.38000, 42.64917
41.41000, 45.65845
41.44000, 47.03882
41.47000, 49.75806
41.50000, 47.79639
41.53000, 53.90161
41.56000, 58.78833
41.59000, 57.10645
41.62000, 51.71338
41.65000, 55.55493
41.68000, 64.48169
41.71000, 67.84546
41.74000, 72.48657
41.77000, 73.33154
41.80000, 72.81787
41.83000, 80.58350
41.86000, 81.91846
41.89000, 82.01270
41.92000, 79.97632
41.95000, 78.54932
41.98000, 77.48682
42.01000, 76.14551
42.04000, 75.74878
42.07000, 73.72363
42.10000, 74.92822
42.13000, 72.85425
42.16000, 69.99243
42.19000, 69.33765
42.22000, 65.70776
42.25000, 65.98462
42.28000, 64.60571
42.31000, 63.71143
42.34000, 63.91333
42.37000, 57.06055
42.40000, 66.57202
42.43000, 65.70728
42.46000, 72.41162
42.49000, 70.23975
42.52000, 62.15039
42.55000, 58.22363
42.58000, 51.98364
42.61000, 49.98291
42.64000, 47.69800
42.67000, 52.07983
42.70000, 49.13745
42.73000, 53.26440
42.76000, 61.70044
42.79000, 75.46631
42.82000, 83.13110
42.85000, 86.97534
42.88000, 97.21899
42.91000, 108.8518
42.94000, 116.2339
42.97000, 114.7053
43.00000, 104.8162
43.03000, 97.17651
43.06000, 102.3660
43.09000, 102.9751
43.12000, 97.59351
43.15000, 101.1609
43.18000, 101.8877
43.21000, 99.71411
43.24000, 96.30029
43.27000, 86.26660
43.30000, 76.56299
43.33000, 70.22705
43.36000, 64.61719
43.39000, 60.82080
43.42000, 65.90088
43.45000, 65.98096
43.48000, 52.30762
43.51000, 37.95752
43.54000, 34.40405
43.57000, 27.58496
43.60000, 27.96851
43.63000, 32.40039
43.66000, 32.32983
43.69000, 32.53955
43.72000, 41.16772
43.75000, 37.13843
43.78000, 44.30566
43.81000, 37.21997
43.84000, 39.16846
43.87000, 45.46240
43.90000, 49.17139
43.93000, 53.29883
43.96000, 56.12329
43.99000, 57.57275
44.02000, 55.40894
44.05000, 57.85986
44.08000, 58.48486
44.11000, 59.02393
44.14000, 62.15112
44.17000, 60.63208
44.20000, 63.87256
44.23000, 65.19141
44.26000, 67.63940
44.29000, 67.84302
44.32000, 63.39551
44.35000, 64.12744
44.38000, 63.35767
44.41000, 64.39941
44.44000, 64.14893
44.47000, 63.76709
44.50000, 67.32471
44.53000, 74.16113
44.56000, 74.75684
44.59000, 64.15918
44.62000, 49.04272
44.65000, 47.59497
44.68000, 43.79639
44.71000, 34.37646
44.74000, 31.96484
44.77000, 25.60205
44.80000, 22.99780
44.83000, 20.77173
44.86000, 20.11621
44.89000, 13.75146
44.92000, 10.77905
44.95000, 2.459473
44.98000, 0.2700200
45.01000, 3.336426
45.04000, 11.56836
45.07000, 8.364502
45.10000, 11.17871
45.13000, 9.587646
45.16000, 8.975098
45.19000, 6.085693
45.22000, 1.689453
45.25000, 4.544678
45.28000, 4.897705
45.31000, 12.09961
45.34000, 13.51074
45.37000, 16.45117
45.40000, 21.08984
45.43000, 24.83716
45.46000, 23.50293
45.49000, 22.87769
45.52000, 22.57202
45.55000, 18.19531
45.58000, 6.437744
45.61000, 2.909424
45.64000, 4.219971
45.67000, 7.509521
45.70000, 9.458252
45.73000, 17.13623
45.76000, 26.93311
45.79000, 24.98950
45.82000, 22.92505
45.85000, 14.81982
45.88000, 8.953857
45.91000, 5.216553
45.94000, 2.580078
45.97000, 9.2528999E-02
46.00000, 2.536865
46.03000, 1.664307
46.06000, 4.500244
46.09000, 14.18506
46.12000, 13.39844
46.15000, 17.05029
46.18000, 27.66211
46.21000, 33.71875
46.24000, 40.92432
46.27000, 44.67798
46.30000, 44.06934
46.33000, 53.95630
46.36000, 57.39844
46.39000, 65.45923
46.42000, 65.78198
46.45000, 66.35767
46.48000, 62.30469
46.51000, 55.21021
46.54000, 47.64453
46.57000, 39.34766
46.60000, 41.82910
46.63000, 37.64941
46.66000, 32.81836
46.69000, 29.09570
46.72000, 26.63208
46.75000, 23.45728
46.78000, 25.46118
46.81000, 24.57422
46.84000, 29.50610
46.87000, 30.55688
46.90000, 30.70630
46.93000, 28.35498
46.96000, 24.02808
46.99000, 11.42798
47.02000, 14.41260
47.05000, 6.665771
47.08000, 7.337646
47.11000, 11.65210
47.14000, 17.15869
47.17000, 18.87646
47.20000, 17.37549
47.23000, 14.12598
47.26000, 9.264404
47.29000, 16.56104
47.32000, 13.65649
47.35000, 7.150391
47.38000, 12.51343
47.41000, 4.475098
47.44000, 2.825439
47.47000, 3.765869
47.50000, 12.07983
47.53000, 6.278564
47.56000, 4.949463
47.59000, 16.93628
47.62000, 10.08228
47.65000, 7.187256
47.68000, 9.321289
47.71000, 5.020020
47.74000, 0.5222170
47.77000, 0.8281250
47.80000, 0.1828610
47.83000, 4.196533
47.86000, 7.915039
47.89000, 18.23413
47.92000, 28.63794
47.95000, 30.37183
47.98000, 27.04517
48.01000, 25.89893
48.04000, 27.06201
48.07000, 28.56665
48.10000, 31.38403
48.13000, 22.38477
48.16000, 16.52173
48.19000, 25.60107
48.22000, 27.48389
48.25000, 35.31445
48.28000, 31.27563
48.31000, 25.22095
48.34000, 36.68506
48.37000, 43.10059
48.40000, 46.42017
48.43000, 66.99121
48.46000, 78.91064
48.49000, 68.64136
48.52000, 63.13623
48.55000, 62.59155
48.58000, 67.22021
48.61000, 55.65771
48.64000, 45.97754
48.67000, 55.84155
48.70000, 54.79688
48.73000, 48.74097
48.76000, 43.28345
48.79000, 40.69092
48.82000, 26.38452
48.85000, 18.52051
48.88000, 19.51440
48.91000, 28.62671
48.94000, 41.10596
48.97000, 38.06201
49.00000, 28.95142
49.03000, 23.98584
49.06000, 25.48730
49.09000, 22.93335
49.12000, 19.56860
49.15000, 26.70190
49.18000, 29.05371
49.21000, 24.44458
49.24000, 19.57397
49.27000, 23.10229
49.30000, 26.25952
49.33000, 25.49536
49.36000, 31.88037
49.39000, 35.07349
49.42000, 38.85596
49.45000, 40.34741
49.48000, 37.34741
49.51000, 43.07642
49.54000, 53.26929
49.57000, 50.69971
49.60000, 55.24268
49.63000, 50.92358
49.66000, 55.59424
49.69000, 49.07324
49.72000, 62.70557
49.75000, 55.19189
49.78000, 56.65967
49.81000, 56.98828
49.84000, 57.12720
49.87000, 58.32617
49.90000, 57.33130
49.93000, 44.79419
49.96000, 41.82275
49.99000, 45.09668
50.02000, 42.12671
50.05000, 47.15161
50.08000, 45.35010
50.11000, 44.54468
50.14000, 42.28784
50.17000, 42.65845
50.20000, 37.91846
50.23000, 33.50146
50.26000, 33.60815
50.29000, 31.95557
50.32000, 30.51367
50.35000, 46.89697
50.38000, 56.21436
50.41000, 74.65747
50.44000, 65.31689
50.47000, 42.86035
50.50000, 38.47266
50.53000, 49.36426
50.56000, 52.92969
50.59000, 64.59814
50.62000, 66.87939
50.65000, 67.13306
50.68000, 57.76855
50.71000, 43.45508
50.74000, 38.22290
50.77000, 43.16382
50.80000, 37.49731
50.83000, 44.12256
50.86000, 46.24292
50.89000, 53.79785
50.92000, 55.69580
50.95000, 50.45239
50.98000, 50.39404
51.01000, 49.15796
51.04000, 41.27563
51.07000, 42.45728
51.10000, 32.47388
51.13000, 22.96582
51.16000, 18.11108
51.19000, 21.87866
51.22000, 26.72900
51.25000, 15.15405
51.28000, 1.436035
51.31000, 1.970459
51.34000, 5.3711001E-02
51.37000, 3.375732
51.40000, 4.017578
51.43000, 10.96069
51.46000, 6.751465
51.49000, 13.14673
51.52000, 22.26465
51.55000, 31.78687
51.58000, 28.72437
51.61000, 24.67969
51.64000, 22.75146
51.67000, 11.13696
51.70000, 0.8334960
51.73000, 2.015869
51.76000, 3.046875
51.79000, 2.180664
51.82000, 0.4851070
51.85000, 4.475830
51.88000, 6.295410
51.91000, 6.875244
51.94000, 1.825439
51.97000, 0.0000000E+00
##END=



