##NAMES=Manjiroite
##RRUFFID=R060379
##IDEAL CHEMISTRY=Na(Mn^4+^_7_Mn^3+^)O_16_
##LOCALITY=Wessels mine, Kalahari Manganese Field, South Africa
##OWNER=RRUFF
##SOURCE=Michael Scott
##DESCRIPTION=Steel gray bed of parallel fibers
##DIFFRACTION SAMPLE DESCRIPTION=Powder, using Mo radiation
##STATUS=The identification of this mineral has been confirmed by X-ray diffraction and chemical analysis
##URL=rruff.info/R060379
##MEASURED CHEMISTRY=(Na_0.60_K_0.28_Ca_0.12_)_Σ=1_(Mn^4+^_7.40_Mn^2+^_0.44_Mg_0.11_Si_0.03_Al_0.02_)_Σ=8_O_16_·2H_2_O
##CELL PARAMETERS=a: 9.970(5) b: 9.970(5) c: 2.8613(6) alpha: 90 beta: 90 gamma: 90 volume: 284.4(3) crystal system: tetragonal
7.310000, 0.0000000E+00
7.340000, 8.5472003E-02
7.370000, 0.9876400
7.400000, 3.160339
7.430000, 3.212265
7.460000, 2.849297
7.490000, 0.2446900
7.520000, 1.572464
7.550000, 0.5275340
7.580000, 0.1280210
7.610000, 3.949860
7.640000, 6.319031
7.670000, 4.602173
7.700000, 1.290298
7.730000, 3.102783
7.760000, 9.593323
7.790000, 17.84482
7.820000, 22.66431
7.850000, 22.42503
7.880000, 17.25323
7.910000, 16.48528
7.940000, 20.16460
7.970000, 27.69530
8.000000, 27.54877
8.030000, 26.45266
8.060000, 24.91784
8.090000, 22.09511
8.120000, 22.78629
8.150000, 24.93420
8.180000, 22.85368
8.210000, 20.80054
8.240000, 18.37657
8.270000, 20.31144
8.300000, 22.63692
8.330000, 22.65044
8.360000, 26.02980
8.390000, 29.83230
8.420000, 26.29790
8.450000, 26.98850
8.480000, 30.68207
8.510000, 26.72151
8.540000, 19.24383
8.570000, 12.99995
8.600000, 12.54123
8.630000, 10.75434
8.660000, 10.73400
8.690000, 10.26598
8.720000, 8.367149
8.750000, 3.270393
8.780000, 1.142593
8.810000, 2.242645
8.840000, 3.282471
8.870000, 6.168945
8.900000, 9.891998
8.930000, 13.74951
8.960000, 13.91246
8.990000, 9.391747
9.020000, 4.675331
9.050000, 6.845116
9.080000, 14.36707
9.110000, 20.13908
9.140000, 22.21725
9.170000, 20.58947
9.200000, 22.19645
9.230000, 19.74728
9.260000, 18.85918
9.290000, 18.20045
9.320000, 14.72310
9.350000, 15.75511
9.380000, 14.55933
9.410000, 16.04107
9.440000, 15.23311
9.470000, 14.89583
9.500000, 13.03818
9.530000, 10.49023
9.560000, 9.401917
9.590000, 10.03989
9.620000, 14.07547
9.650000, 16.96553
9.680000, 18.15636
9.710000, 19.88792
9.740000, 18.02309
9.770000, 14.94527
9.800000, 9.751755
9.830000, 4.620766
9.860000, 8.6899996E-03
9.890000, 1.651505
9.920000, 1.049179
9.950000, 1.727570
9.980000, 5.740471
10.01000, 9.133339
10.04000, 11.31373
10.07000, 13.17316
10.10000, 13.74564
10.13000, 12.84216
10.16000, 16.60876
10.19000, 18.70045
10.22000, 15.84821
10.25000, 10.92905
10.28000, 7.844009
10.31000, 9.946030
10.34000, 8.980125
10.37000, 5.097298
10.40000, 1.221375
10.43000, 1.273155
10.46000, 4.524017
10.49000, 8.457954
10.52000, 9.021950
10.55000, 8.823990
10.58000, 13.08610
10.61000, 15.35725
10.64000, 11.74842
10.67000, 7.715637
10.70000, 4.312874
10.73000, 3.513130
10.76000, 2.719398
10.79000, 3.120697
10.82000, 5.604980
10.85000, 5.569260
10.88000, 10.60756
10.91000, 7.444771
10.94000, 8.109688
10.97000, 8.391998
11.00000, 6.086502
11.03000, 4.086700
11.06000, 2.962090
11.09000, 4.020149
11.12000, 4.643593
11.15000, 3.432190
11.18000, 8.679649
11.21000, 13.36035
11.24000, 14.57417
11.27000, 14.04305
11.30000, 7.816902
11.33000, 1.013672
11.36000, 1.225685
11.39000, 0.7616500
11.42000, 2.925781
11.45000, 5.087631
11.48000, 6.430946
11.51000, 4.259445
11.54000, 2.492424
11.57000, 3.277100
11.60000, 5.240227
11.63000, 10.32558
11.66000, 12.54934
11.69000, 8.747246
11.72000, 8.728424
11.75000, 8.558250
11.78000, 6.394585
11.81000, 5.546860
11.84000, 4.720421
11.87000, 3.553879
11.90000, 2.836433
11.93000, 3.118568
11.96000, 4.609520
11.99000, 5.007309
12.02000, 5.768440
12.05000, 4.691689
12.08000, 4.414391
12.11000, 4.434959
12.14000, 4.933640
12.17000, 3.080612
12.20000, 2.740379
12.23000, 0.1758960
12.26000, 1.190376
12.29000, 4.396500
12.32000, 5.488838
12.35000, 3.924820
12.38000, 3.719810
12.41000, 5.665016
12.44000, 5.348465
12.47000, 5.521248
12.50000, 7.661385
12.53000, 10.27501
12.56000, 13.30220
12.59000, 16.46175
12.62000, 17.35941
12.65000, 19.28937
12.68000, 17.89177
12.71000, 20.24983
12.74000, 20.39326
12.77000, 18.71708
12.80000, 19.85599
12.83000, 19.16798
12.86000, 17.88017
12.89000, 16.66348
12.92000, 16.81219
12.95000, 16.33580
12.98000, 16.78095
13.01000, 17.16168
13.04000, 15.78658
13.07000, 15.33456
13.10000, 14.31645
13.13000, 15.39260
13.16000, 11.97569
13.19000, 12.41480
13.22000, 11.58195
13.25000, 13.69411
13.28000, 16.21624
13.31000, 16.20035
13.34000, 14.55441
13.37000, 15.37142
13.40000, 12.65040
13.43000, 6.758011
13.46000, 6.866066
13.49000, 6.440987
13.52000, 3.065468
13.55000, 2.817329
13.58000, 5.119667
13.61000, 7.044975
13.64000, 7.238846
13.67000, 7.386261
13.70000, 7.099030
13.73000, 5.562057
13.76000, 4.090233
13.79000, 4.125450
13.82000, 4.846519
13.85000, 6.149658
13.88000, 7.921265
13.91000, 10.61614
13.94000, 11.47748
13.97000, 10.10008
14.00000, 6.115448
14.03000, 4.276947
14.06000, 5.046104
14.09000, 6.593330
14.12000, 7.246094
14.15000, 8.108192
14.18000, 8.732399
14.21000, 9.243233
14.24000, 7.572571
14.27000, 5.562843
14.30000, 6.096809
14.33000, 4.310638
14.36000, 2.854622
14.39000, 3.903717
14.42000, 6.367439
14.45000, 5.400955
14.48000, 5.558464
14.51000, 5.746803
14.54000, 2.409187
14.57000, 1.407593
14.60000, 1.798767
14.63000, 4.643845
14.66000, 6.289871
14.69000, 4.671387
14.72000, 4.174187
14.75000, 5.734871
14.78000, 5.588898
14.81000, 5.838722
14.84000, 7.943314
14.87000, 5.980568
14.90000, 4.160973
14.93000, 4.898933
14.96000, 5.958427
14.99000, 4.934296
15.02000, 2.597008
15.05000, 1.447060
15.08000, 5.0087001E-02
15.11000, 1.314201
15.14000, 5.9360000E-03
15.17000, 1.940018
15.20000, 2.038406
15.23000, 1.372871
15.26000, 1.480911
15.29000, 0.3580170
15.32000, 1.290932
15.35000, 2.252403
15.38000, 0.7229540
15.41000, 0.3796770
15.44000, 0.9161450
15.47000, 1.959084
15.50000, 2.645576
15.53000, 3.543633
15.56000, 2.462448
15.59000, 0.4274220
15.62000, 0.2731700
15.65000, 0.6231610
15.68000, 1.678619
15.71000, 1.074356
15.74000, 2.740593
15.77000, 0.6377180
15.80000, 0.5786060
15.83000, 0.7105330
15.86000, 1.782326
15.89000, 2.430519
15.92000, 2.352364
15.95000, 2.421013
15.98000, 1.967926
16.01000, 1.267921
16.04000, 0.4782490
16.07000, 0.8534930
16.10000, 0.8653340
16.13000, 2.759262
16.16000, 2.356071
16.19000, 2.825989
16.22000, 3.153107
16.25000, 3.029945
16.28000, 1.803764
16.31000, 0.1491780
16.34000, 4.914291
16.37000, 4.424599
16.40000, 6.453880
16.43000, 8.368851
16.46000, 8.248917
16.49000, 8.853539
16.52000, 11.42979
16.55000, 15.27739
16.58000, 18.86784
16.61000, 22.01146
16.64000, 26.05590
16.67000, 33.00661
16.70000, 40.85833
16.73000, 47.23983
16.76000, 56.83183
16.79000, 65.14375
16.82000, 76.67600
16.85000, 87.61990
16.88000, 99.18410
16.91000, 108.5890
16.94000, 117.7065
16.97000, 125.2458
17.00000, 132.8785
17.03000, 136.7289
17.06000, 141.2380
17.09000, 143.6639
17.12000, 140.8935
17.15000, 133.3478
17.18000, 125.7070
17.21000, 114.1898
17.24000, 101.0613
17.27000, 90.13940
17.30000, 78.56009
17.33000, 67.67242
17.36000, 60.10036
17.39000, 52.33896
17.42000, 43.57612
17.45000, 35.85889
17.48000, 29.80501
17.51000, 24.51794
17.54000, 22.87905
17.57000, 21.31708
17.60000, 18.07605
17.63000, 16.26823
17.66000, 13.08723
17.69000, 9.994980
17.72000, 9.226593
17.75000, 8.288815
17.78000, 5.470428
17.81000, 4.740467
17.84000, 5.834957
17.87000, 5.394451
17.90000, 4.475338
17.93000, 4.427505
17.96000, 5.330269
17.99000, 3.818108
18.02000, 7.962421
18.05000, 6.239391
18.08000, 5.246738
18.11000, 5.653732
18.14000, 2.081371
18.17000, 2.249619
18.20000, 2.321758
18.23000, 2.092289
18.26000, 1.528328
18.29000, 2.289898
18.32000, 4.219051
18.35000, 6.449913
18.38000, 7.252453
18.41000, 7.269058
18.44000, 9.261547
18.47000, 8.283760
18.50000, 7.560699
18.53000, 8.562542
18.56000, 9.527687
18.59000, 11.59696
18.62000, 13.21990
18.65000, 13.95512
18.68000, 17.12224
18.71000, 17.17348
18.74000, 18.02895
18.77000, 20.48324
18.80000, 21.63279
18.83000, 21.17292
18.86000, 19.25098
18.89000, 17.15689
18.92000, 17.64854
18.95000, 18.37670
18.98000, 20.25457
19.01000, 22.02544
19.04000, 22.69093
19.07000, 21.84591
19.10000, 19.74701
19.13000, 20.02789
19.16000, 17.73309
19.19000, 15.21239
19.22000, 13.20012
19.25000, 13.44840
19.28000, 13.09138
19.31000, 10.87599
19.34000, 8.536240
19.37000, 6.958447
19.40000, 8.119595
19.43000, 7.942833
19.46000, 5.964962
19.49000, 6.587490
19.52000, 5.544308
19.55000, 3.603546
19.58000, 3.388863
19.61000, 4.000015
19.64000, 5.273598
19.67000, 6.780556
19.70000, 6.014427
19.73000, 3.826950
19.76000, 2.126652
19.79000, 1.938118
19.82000, 0.5235710
19.85000, 0.8756290
19.88000, 0.2324100
19.91000, 0.6021390
19.94000, 1.480659
19.97000, 0.8016510
20.00000, 3.9528001E-02
20.03000, 0.1884500
20.06000, 0.8345680
20.09000, 1.189003
20.12000, 1.472691
20.15000, 1.500797
20.18000, 0.1766660
20.21000, 1.171791
20.24000, 1.694080
20.27000, 1.727005
20.30000, 1.168819
20.33000, 0.8443950
20.36000, 1.055027
20.39000, 2.162613
20.42000, 3.109901
20.45000, 4.974297
20.48000, 5.563435
20.51000, 5.567333
20.54000, 5.584084
20.57000, 5.850975
20.60000, 6.338043
20.63000, 6.168682
20.66000, 6.882191
20.69000, 9.197056
20.72000, 8.015156
20.75000, 8.543182
20.78000, 9.076225
20.81000, 7.453457
20.84000, 6.916889
20.87000, 7.381588
20.90000, 7.951912
20.93000, 7.265038
20.96000, 4.138832
20.99000, 2.118698
21.02000, 1.834099
21.05000, 2.243431
21.08000, 2.197716
21.11000, 2.412796
21.14000, 2.167839
21.17000, 2.704971
21.20000, 2.433846
21.23000, 2.064842
21.26000, 2.363235
21.29000, 4.692104
21.32000, 5.156776
21.35000, 5.896729
21.38000, 6.516613
21.41000, 6.364655
21.44000, 6.389248
21.47000, 6.198399
21.50000, 4.989769
21.53000, 4.945782
21.56000, 6.605171
21.59000, 6.564930
21.62000, 5.195942
21.65000, 4.922024
21.68000, 3.549408
21.71000, 2.870247
21.74000, 2.658573
21.77000, 1.901943
21.80000, 1.852501
21.83000, 1.914417
21.86000, 2.842052
21.89000, 5.210503
21.92000, 7.165131
21.95000, 8.645679
21.98000, 7.628853
22.01000, 6.023220
22.04000, 5.137352
22.07000, 8.253963
22.10000, 9.968521
22.13000, 10.66565
22.16000, 13.33045
22.19000, 14.68359
22.22000, 15.01367
22.25000, 14.17260
22.28000, 14.12954
22.31000, 13.05592
22.34000, 12.84640
22.37000, 13.00719
22.40000, 13.00264
22.43000, 11.94448
22.46000, 11.86905
22.49000, 12.31802
22.52000, 11.22776
22.55000, 11.08057
22.58000, 10.82209
22.61000, 8.844025
22.64000, 9.960987
22.67000, 5.916695
22.70000, 4.659443
22.73000, 5.308582
22.76000, 4.263973
22.79000, 4.041084
22.82000, 4.146797
22.85000, 3.991364
22.88000, 3.531929
22.91000, 4.743008
22.94000, 4.608902
22.97000, 5.425758
23.00000, 4.956982
23.03000, 4.882488
23.06000, 5.229149
23.09000, 4.172474
23.12000, 1.546062
23.15000, 0.9744800
23.18000, 1.443886
23.21000, 1.778858
23.24000, 1.679764
23.27000, 2.322296
23.30000, 2.504002
23.33000, 3.087784
23.36000, 3.270367
23.39000, 3.236309
23.42000, 3.756485
23.45000, 2.905014
23.48000, 2.790989
23.51000, 2.802055
23.54000, 3.226742
23.57000, 3.609581
23.60000, 4.174492
23.63000, 4.209652
23.66000, 2.340240
23.69000, 0.7626690
23.72000, 1.868019
23.75000, 2.059677
23.78000, 1.661064
23.81000, 3.338192
23.84000, 5.847435
23.87000, 5.190895
23.90000, 4.689835
23.93000, 4.177608
23.96000, 3.840771
23.99000, 3.482777
24.02000, 2.759441
24.05000, 0.3469510
24.08000, 3.767555
24.11000, 5.636597
24.14000, 6.037407
24.17000, 0.5739330
24.20000, 2.681698
24.23000, 1.754498
24.26000, 0.7022970
24.29000, 3.874088
24.32000, 0.7392880
24.35000, 2.363827
24.38000, 2.385666
24.41000, 3.816959
24.44000, 2.194580
24.47000, 1.514713
24.50000, 3.888477
24.53000, 0.4196240
24.56000, 8.0211997E-02
24.59000, 1.079861
24.62000, 0.5248150
24.65000, 1.566780
24.68000, 2.816425
24.71000, 3.112690
24.74000, 2.546970
24.77000, 2.974869
24.80000, 2.997021
24.83000, 2.475090
24.86000, 3.035397
24.89000, 2.616629
24.92000, 1.922489
24.95000, 0.7729360
24.98000, 0.3479420
25.01000, 1.167746
25.04000, 2.361834
25.07000, 2.216930
25.10000, 1.997250
25.13000, 2.299183
25.16000, 1.908037
25.19000, 2.367311
25.22000, 3.056126
25.25000, 1.323997
25.28000, 0.3706590
25.31000, 0.9050830
25.34000, 0.9031890
25.37000, 0.3278520
25.40000, 1.473640
25.43000, 2.301172
25.46000, 1.134329
25.49000, 0.1748580
25.52000, 0.9792140
25.55000, 1.556082
25.58000, 0.5510880
25.61000, 0.6134090
25.64000, 1.443876
25.67000, 2.072046
25.70000, 2.487551
25.73000, 1.468489
25.76000, 1.045469
25.79000, 2.107365
25.82000, 2.187141
25.85000, 1.171598
25.88000, 1.308807
25.91000, 1.729177
25.94000, 1.004618
25.97000, 0.6149850
26.00000, 1.032394
26.03000, 0.3161750
26.06000, 1.425385
26.09000, 2.747471
26.12000, 2.934288
26.15000, 3.136936
26.18000, 2.321323
26.21000, 0.5183330
26.24000, 0.1376090
26.27000, 0.4112340
26.30000, 0.9720730
26.33000, 0.7159960
26.36000, 5.2839000E-02
26.39000, 0.2173840
26.42000, 0.1546940
26.45000, 0.2360250
26.48000, 0.2180020
26.51000, 0.1675830
26.54000, 0.5794680
26.57000, 0.9671540
26.60000, 1.827362
26.63000, 2.528824
26.66000, 3.004765
26.69000, 3.550852
26.72000, 2.845673
26.75000, 1.433977
26.78000, 2.040041
26.81000, 2.340073
26.84000, 3.024733
26.87000, 3.641621
26.90000, 2.939816
26.93000, 1.549505
26.96000, 1.251919
26.99000, 1.445040
27.02000, 1.084648
27.05000, 2.244551
27.08000, 3.239716
27.11000, 2.433912
27.14000, 2.375853
27.17000, 1.905281
27.20000, 1.220766
27.23000, 0.7822300
27.26000, 0.5540600
27.29000, 0.7397880
27.32000, 0.8653530
27.35000, 1.615406
27.38000, 0.3778340
27.41000, 0.8899610
27.44000, 0.7499290
27.47000, 2.461357
27.50000, 2.740364
27.53000, 2.314159
27.56000, 2.555439
27.59000, 2.788784
27.62000, 2.539501
27.65000, 2.667995
27.68000, 2.563971
27.71000, 2.714424
27.74000, 3.227442
27.77000, 3.553078
27.80000, 4.598446
27.83000, 5.160589
27.86000, 4.759100
27.89000, 4.868746
27.92000, 4.272678
27.95000, 3.496807
27.98000, 2.411665
28.01000, 1.855343
28.04000, 2.834076
28.07000, 2.633207
28.10000, 2.592573
28.13000, 2.335690
28.16000, 2.044970
28.19000, 2.136095
28.22000, 3.282549
28.25000, 2.185232
28.28000, 2.800045
28.31000, 2.733997
28.34000, 2.620687
28.37000, 2.761875
28.40000, 2.774063
28.43000, 5.062874
28.46000, 8.336540
28.49000, 13.80156
28.52000, 19.32377
28.55000, 26.52731
28.58000, 37.39487
28.61000, 51.75004
28.64000, 69.97774
28.67000, 90.86323
28.70000, 112.2159
28.73000, 132.7238
28.76000, 150.3190
28.79000, 159.1263
28.82000, 164.7758
28.85000, 170.5964
28.88000, 170.7194
28.91000, 163.5110
28.94000, 156.3690
28.97000, 149.5244
29.00000, 138.3394
29.03000, 120.7280
29.06000, 102.8907
29.09000, 86.44983
29.12000, 73.87300
29.15000, 64.39446
29.18000, 58.11809
29.21000, 52.20728
29.24000, 48.49543
29.27000, 47.54597
29.30000, 47.61989
29.33000, 47.92966
29.36000, 49.47665
29.39000, 49.11475
29.42000, 49.77227
29.45000, 49.11593
29.48000, 45.99763
29.51000, 39.91578
29.54000, 38.29530
29.57000, 35.38002
29.60000, 32.41396
29.63000, 30.83975
29.66000, 29.39393
29.69000, 28.09186
29.72000, 25.72039
29.75000, 23.42117
29.78000, 21.14752
29.81000, 22.25825
29.84000, 23.77625
29.87000, 23.31639
29.90000, 24.81885
29.93000, 26.93335
29.96000, 28.52748
29.99000, 29.95416
30.02000, 28.63380
30.05000, 26.47104
30.08000, 25.69055
30.11000, 24.02956
30.14000, 20.97766
30.17000, 19.43293
30.20000, 21.25458
30.23000, 20.96981
30.26000, 17.47102
30.29000, 15.69820
30.32000, 15.14192
30.35000, 13.41990
30.38000, 12.97535
30.41000, 10.53498
30.44000, 8.479242
30.47000, 8.341925
30.50000, 6.746466
30.53000, 7.513996
30.56000, 5.309546
30.59000, 5.051630
30.62000, 4.296419
30.65000, 4.708700
30.68000, 5.020199
30.71000, 4.783222
30.74000, 5.673962
30.77000, 4.758316
30.80000, 2.335270
30.83000, 2.045002
30.86000, 3.229927
30.89000, 3.852934
30.92000, 4.043314
30.95000, 3.093868
30.98000, 2.800112
31.01000, 4.163324
31.04000, 5.333868
31.07000, 5.334263
31.10000, 4.836227
31.13000, 4.089802
31.16000, 4.510502
31.19000, 5.768723
31.22000, 6.447489
31.25000, 6.566269
31.28000, 5.617672
31.31000, 3.499100
31.34000, 4.658054
31.37000, 6.694204
31.40000, 7.784988
31.43000, 10.39680
31.46000, 12.37577
31.49000, 13.04328
31.52000, 14.49230
31.55000, 14.70197
31.58000, 15.86734
31.61000, 17.29725
31.64000, 17.98651
31.67000, 17.93735
31.70000, 19.08373
31.73000, 19.22143
31.76000, 17.02650
31.79000, 16.24085
31.82000, 16.46130
31.85000, 14.61144
31.88000, 14.34072
31.91000, 15.94676
31.94000, 15.96313
31.97000, 14.79414
32.00000, 13.28053
32.03000, 9.824188
32.06000, 7.880188
32.09000, 7.946053
32.12000, 6.962185
32.15000, 5.878918
32.18000, 4.965868
32.21000, 3.572302
32.24000, 1.843723
32.27000, 1.433170
32.30000, 2.407957
32.33000, 4.213783
32.36000, 6.110601
32.39000, 6.279148
32.42000, 6.897867
32.45000, 7.804947
32.48000, 7.651688
32.51000, 5.379356
32.54000, 3.281322
32.57000, 3.815851
32.60000, 2.006626
32.63000, 3.046211
32.66000, 0.9125480
32.69000, 1.558645
32.72000, 1.947193
32.75000, 2.056450
32.78000, 1.204430
32.81000, 2.248314
32.84000, 1.085535
32.87000, 3.243412
32.90000, 3.990807
32.93000, 3.604433
32.96000, 1.762232
32.99000, 1.252882
33.02000, 2.366085
33.05000, 3.617254
33.08000, 2.859385
33.11000, 3.600273
33.14000, 3.537834
33.17000, 4.938560
33.20000, 3.680822
33.23000, 3.709379
33.26000, 4.302053
33.29000, 5.859692
33.32000, 6.329243
33.35000, 4.857517
33.38000, 2.660526
33.41000, 2.485498
33.44000, 1.528507
33.47000, 5.340664
33.50000, 7.602161
33.53000, 8.396658
33.56000, 3.327219
33.59000, 5.829866
33.62000, 5.298479
33.65000, 4.642750
33.68000, 8.211819
33.71000, 3.996347
33.74000, 6.934441
33.77000, 7.849686
33.80000, 9.168957
33.83000, 9.666946
33.86000, 10.00562
33.89000, 10.28019
33.92000, 9.629658
33.95000, 10.28701
33.98000, 9.147522
34.01000, 9.444185
34.04000, 8.512054
34.07000, 7.022327
34.10000, 6.067102
34.13000, 4.684439
34.16000, 4.601240
34.19000, 5.909853
34.22000, 5.766180
34.25000, 6.165005
34.28000, 5.389729
34.31000, 3.457848
34.34000, 2.597160
34.37000, 0.9895690
34.40000, 0.8749890
34.43000, 0.7666190
34.46000, 0.8794610
34.49000, 0.6210460
34.52000, 0.7152750
34.55000, 0.2980440
34.58000, 0.5584010
34.61000, 0.5703660
34.64000, 3.3325002E-02
34.67000, 0.7355610
34.70000, 1.608780
34.73000, 1.253775
34.76000, 0.7474480
34.79000, 4.5050001E-03
34.82000, 0.6460080
34.85000, 0.8156150
34.88000, 0.7933860
34.91000, 0.9534320
34.94000, 0.3589440
34.97000, 0.4463770
35.00000, 1.129827
35.03000, 0.6151710
35.06000, 0.7757930
35.09000, 1.794722
35.12000, 2.548803
35.15000, 3.091614
35.18000, 2.485741
35.21000, 3.089088
35.24000, 2.303291
35.27000, 1.092443
35.30000, 1.776196
35.33000, 1.062847
35.36000, 0.8354430
35.39000, 0.8740810
35.42000, 0.5355610
35.45000, 0.4069820
35.48000, 0.5999410
35.51000, 5.7801999E-02
35.54000, 0.8721470
35.57000, 0.5706810
35.60000, 1.991306
35.63000, 2.527866
35.66000, 1.739399
35.69000, 0.8902000
35.72000, 0.7258220
35.75000, 1.126455
35.78000, 0.4386040
35.81000, 0.6197380
35.84000, 0.4873240
35.87000, 0.1269720
35.90000, 4.4270001E-02
35.93000, 1.040562
35.96000, 1.981310
35.99000, 0.7752840
36.02000, 0.6193100
36.05000, 0.2118470
36.08000, 8.4700003E-02
36.11000, 0.1245690
36.14000, 0.3946080
36.17000, 0.7960150
36.20000, 0.4954890
36.23000, 0.8848210
36.26000, 0.5871520
36.29000, 0.8772320
36.32000, 0.4876370
36.35000, 0.3706380
36.38000, 0.2782520
36.41000, 1.494692
36.44000, 1.029623
36.47000, 0.5348590
36.50000, 0.5476320
36.53000, 0.4829430
36.56000, 0.5146880
36.59000, 1.663166
36.62000, 1.780977
36.65000, 1.451513
36.68000, 0.4393830
36.71000, 0.2313790
36.74000, 0.1483960
36.77000, 0.9613320
36.80000, 0.1676270
36.83000, 8.7623999E-02
36.86000, 0.4934600
36.89000, 5.9211999E-02
36.92000, 1.278629
36.95000, 3.190157
36.98000, 2.569197
37.01000, 2.287449
37.04000, 2.502562
37.07000, 1.026283
37.10000, 0.4066090
37.13000, 0.6672310
37.16000, 0.6150530
37.19000, 0.4858780
37.22000, 0.9797920
37.25000, 1.598303
37.28000, 0.6471920
37.31000, 4.0385999E-02
37.34000, 1.518450
37.37000, 1.741905
37.40000, 2.275049
37.43000, 2.256178
37.46000, 0.6068900
37.49000, 0.3625870
37.52000, 0.7524810
37.55000, 0.7513680
37.58000, 1.270247
37.61000, 1.255764
37.64000, 1.081038
37.67000, 1.762264
37.70000, 0.5885870
37.73000, 1.614670
37.76000, 1.594727
37.79000, 0.3369500
37.82000, 0.9416980
37.85000, 1.459610
37.88000, 1.489389
37.91000, 2.024931
37.94000, 1.649635
37.97000, 1.617046
38.00000, 1.066177
38.03000, 1.265963
38.06000, 0.9045470
38.09000, 0.8784680
38.12000, 0.8694420
38.15000, 1.049145
38.18000, 1.854198
38.21000, 2.295803
38.24000, 2.051207
38.27000, 2.706404
38.30000, 2.231150
38.33000, 1.452843
38.36000, 2.156080
38.39000, 2.781155
38.42000, 3.943720
38.45000, 3.502787
38.48000, 2.374897
38.51000, 2.162945
38.54000, 1.632538
38.57000, 1.380482
38.60000, 1.423899
38.63000, 1.988865
38.66000, 2.452915
38.69000, 3.336103
38.72000, 3.513035
38.75000, 3.010609
38.78000, 3.897045
38.81000, 4.193287
38.84000, 2.267889
38.87000, 0.9844040
38.90000, 1.695150
38.93000, 2.024527
38.96000, 2.268841
38.99000, 2.246786
39.02000, 1.846165
39.05000, 1.509775
39.08000, 0.6304150
39.11000, 0.5256920
39.14000, 6.1377998E-02
39.17000, 0.7007600
39.20000, 0.1957950
39.23000, 1.162222
39.26000, 1.362835
39.29000, 1.427006
39.32000, 2.232805
39.35000, 1.612932
39.38000, 0.7662890
39.41000, 1.447346
39.44000, 0.6049670
39.47000, 0.7668740
39.50000, 0.4636630
39.53000, 1.097609
39.56000, 0.9180110
39.59000, 0.7578410
39.62000, 0.1977120
39.65000, 2.023230
39.68000, 2.178366
39.71000, 2.306244
39.74000, 2.085052
39.77000, 1.611191
39.80000, 1.641661
39.83000, 0.5239580
39.86000, 0.1858250
39.89000, 0.3793700
39.92000, 0.4533580
39.95000, 0.4818880
39.98000, 1.580631
40.01000, 0.8254910
40.04000, 1.347673
40.07000, 1.617487
40.10000, 1.402239
40.13000, 1.761126
40.16000, 2.001549
40.19000, 1.689507
40.22000, 2.097898
40.25000, 2.120728
40.28000, 2.499094
40.31000, 2.916292
40.34000, 2.867834
40.37000, 2.835800
40.40000, 2.513597
40.43000, 2.405764
40.46000, 2.187464
40.49000, 2.045780
40.52000, 1.672041
40.55000, 2.525642
40.58000, 2.740383
40.61000, 2.257277
40.64000, 2.058201
40.67000, 2.053263
40.70000, 1.754143
40.73000, 2.231861
40.76000, 1.444052
40.79000, 1.693285
40.82000, 1.478561
40.85000, 1.148985
40.88000, 1.374449
40.91000, 1.567425
40.94000, 1.877331
40.97000, 2.258432
41.00000, 2.447485
41.03000, 2.369188
41.06000, 1.693748
41.09000, 1.066772
41.12000, 0.1602630
41.15000, 0.3638400
41.18000, 1.749517
41.21000, 2.585855
41.24000, 2.142851
41.27000, 2.033504
41.30000, 2.581074
41.33000, 2.590946
41.36000, 3.044880
41.39000, 3.111168
41.42000, 2.1617999E-02
41.45000, 3.509197
41.48000, 5.445560
41.51000, 5.914040
41.54000, 0.5185950
41.57000, 2.694857
41.60000, 1.836529
41.63000, 0.8536280
41.66000, 4.095011
41.69000, 0.4485860
41.72000, 2.724684
41.75000, 2.817677
41.78000, 4.320522
41.81000, 2.770041
41.84000, 2.162477
41.87000, 4.608971
41.90000, 5.364218
41.93000, 3.461775
41.96000, 5.053511
41.99000, 0.4019200
42.02000, 1.228712
42.05000, 4.419123
42.08000, 2.669600
42.11000, 1.775698
42.14000, 1.934561
42.17000, 2.292961
42.20000, 2.527725
42.23000, 2.868252
42.26000, 1.963568
42.29000, 1.135674
42.32000, 0.7804740
42.35000, 0.7896630
42.38000, 1.167744
42.41000, 0.6051180
42.44000, 0.9784850
42.47000, 0.8932060
42.50000, 0.9447690
42.53000, 1.362738
42.56000, 1.620907
42.59000, 2.319483
42.62000, 2.661661
42.65000, 2.600845
42.68000, 3.375381
42.71000, 3.506718
42.74000, 3.076555
42.77000, 2.670998
42.80000, 1.293705
42.83000, 6.2290002E-02
42.86000, 1.471914
42.89000, 2.242567
42.92000, 1.807545
42.95000, 1.525749
42.98000, 2.468737
43.01000, 1.975298
43.04000, 0.5581910
43.07000, 0.6144370
43.10000, 0.9647770
43.13000, 0.7902390
43.16000, 0.2440490
43.19000, 0.8633210
43.22000, 0.5736870
43.25000, 0.3449690
43.28000, 0.9160480
43.31000, 2.798485
43.34000, 3.937584
43.37000, 2.999851
43.40000, 1.282782
43.43000, 0.8650670
43.46000, 1.948856
43.49000, 1.917152
43.52000, 1.674257
43.55000, 0.8506160
43.58000, 0.1207490
43.61000, 0.5086210
43.64000, 1.316210
43.67000, 2.113281
43.70000, 2.571133
43.73000, 2.046366
43.76000, 1.240183
43.79000, 1.130589
43.82000, 1.532076
43.85000, 1.805555
43.88000, 1.718420
43.91000, 2.228918
43.94000, 1.473759
43.97000, 3.625662
44.00000, 4.309877
44.03000, 0.8696780
44.06000, 1.522522
44.09000, 0.8802680
44.12000, 0.1135790
44.15000, 3.571539
44.18000, 0.7552470
44.21000, 2.635681
44.24000, 2.945864
44.27000, 4.666029
44.30000, 3.332993
44.33000, 2.943026
44.36000, 5.607225
44.39000, 4.234699
44.42000, 5.192890
44.45000, 6.319811
44.48000, 7.454830
44.51000, 9.699625
44.54000, 11.94539
44.57000, 16.13725
44.60000, 20.61432
44.63000, 23.46965
44.66000, 26.38672
44.69000, 30.78917
44.72000, 32.26944
44.75000, 35.78835
44.78000, 37.88698
44.81000, 38.59074
44.84000, 38.11834
44.87000, 37.99967
44.90000, 40.72522
44.93000, 42.11073
44.96000, 40.14165
44.99000, 37.07354
45.02000, 34.13858
45.05000, 30.57994
45.08000, 28.78175
45.11000, 27.97350
45.14000, 25.13714
45.17000, 20.95808
45.20000, 16.51336
45.23000, 14.05075
45.26000, 12.72002
45.29000, 11.14490
45.32000, 9.875874
45.35000, 8.996603
45.38000, 8.918385
45.41000, 9.473021
45.44000, 9.450708
45.47000, 7.232962
45.50000, 6.356972
45.53000, 5.485840
45.56000, 3.553066
45.59000, 3.398949
45.62000, 3.905001
45.65000, 4.139906
45.68000, 4.084778
45.71000, 3.543814
45.74000, 3.008213
45.77000, 3.641277
45.80000, 4.271105
45.83000, 3.846498
45.86000, 3.304359
45.89000, 1.949484
45.92000, 1.495773
45.95000, 2.652506
45.98000, 3.047941
46.01000, 4.080679
46.04000, 3.493599
46.07000, 2.590607
46.10000, 2.865791
46.13000, 1.478357
46.16000, 1.629105
46.19000, 2.105030
46.22000, 1.547239
46.25000, 1.272831
46.28000, 2.603727
46.31000, 4.536842
46.34000, 5.817165
46.37000, 6.069994
46.40000, 6.224098
46.43000, 5.253418
46.46000, 5.211596
46.49000, 4.450062
46.52000, 5.650215
46.55000, 6.053556
46.58000, 4.024601
46.61000, 2.404938
46.64000, 3.880991
46.67000, 6.141729
46.70000, 5.749144
46.73000, 4.677219
46.76000, 3.896595
46.79000, 4.069698
46.82000, 5.045084
46.85000, 5.635670
46.88000, 4.968073
46.91000, 4.381266
46.94000, 3.479464
46.97000, 3.222464
47.00000, 2.716364
47.03000, 3.337599
47.06000, 5.820417
47.09000, 7.642782
47.12000, 8.207285
47.15000, 8.576921
47.18000, 6.918062
47.21000, 5.626011
47.24000, 4.367165
47.27000, 3.559729
47.30000, 2.458126
47.33000, 3.088343
47.36000, 3.527662
47.39000, 2.862190
47.42000, 2.276426
47.45000, 4.647564
47.48000, 5.765209
47.51000, 3.866625
47.54000, 2.807085
47.57000, 3.933455
47.60000, 3.686836
47.63000, 3.228571
47.66000, 2.746069
47.69000, 1.250175
47.72000, 3.7494998E-02
47.75000, 1.372719
47.78000, 2.180235
47.81000, 2.675577
47.84000, 2.245625
47.87000, 2.766182
47.90000, 2.481049
47.93000, 0.4197220
47.96000, 0.2403010
47.99000, 0.6170900
48.02000, 0.9200860
48.05000, 2.123089
48.08000, 2.336702
48.11000, 1.374168
48.14000, 1.665230
48.17000, 3.653381
48.20000, 4.771688
48.23000, 3.762655
48.26000, 3.843975
48.29000, 4.671192
48.32000, 3.257696
48.35000, 2.050592
48.38000, 2.673107
48.41000, 1.569599
48.44000, 1.103582
48.47000, 2.512857
48.50000, 2.738026
48.53000, 2.761883
48.56000, 3.333736
48.59000, 2.210276
48.62000, 2.488510
48.65000, 3.151735
48.68000, 3.477213
48.71000, 4.829489
48.74000, 4.014374
48.77000, 0.9744430
48.80000, 0.5193040
48.83000, 0.3485570
48.86000, 0.4513990
48.89000, 0.9123440
48.92000, 1.678278
48.95000, 2.527500
48.98000, 3.340509
49.01000, 1.651701
49.04000, 0.7792260
49.07000, 0.5907920
49.10000, 1.049746
49.13000, 0.4434810
49.16000, 0.3510970
49.19000, 2.130756
49.22000, 3.189295
49.25000, 3.002514
49.28000, 4.610418
49.31000, 3.258604
49.34000, 1.580368
49.37000, 1.914816
49.40000, 0.8979170
49.43000, 3.490561
49.46000, 1.185757
49.49000, 0.6457670
49.52000, 2.658367
49.55000, 0.4724580
49.58000, 0.8263320
49.61000, 1.474979
49.64000, 1.555643
49.67000, 2.077682
49.70000, 3.003357
49.73000, 2.812294
49.76000, 2.357998
49.79000, 3.478966
49.82000, 4.477999
49.85000, 3.289492
49.88000, 3.054649
49.91000, 4.347666
49.94000, 4.063448
49.97000, 2.685183
50.00000, 1.010574
50.03000, 1.022152
50.06000, 2.795483
50.09000, 3.609871
50.12000, 3.625311
50.15000, 3.083506
50.18000, 2.569752
50.21000, 1.890747
50.24000, 1.897297
50.27000, 1.411081
50.30000, 0.1959880
50.33000, 1.473179
50.36000, 2.741917
50.39000, 2.074356
50.42000, 2.397045
50.45000, 2.578638
50.48000, 2.147139
50.51000, 2.402763
50.54000, 1.540810
50.57000, 0.9238910
50.60000, 0.4593070
50.63000, 1.010454
50.66000, 1.641232
50.69000, 2.588140
50.72000, 2.183380
50.75000, 1.974148
50.78000, 3.058374
50.81000, 2.547972
50.84000, 1.893875
50.87000, 2.642513
50.90000, 2.981625
50.93000, 2.109753
50.96000, 1.754002
50.99000, 1.041965
51.02000, 0.1105480
51.05000, 0.9818500
51.08000, 0.8630750
51.11000, 2.636566
51.14000, 4.585131
51.17000, 5.065954
51.20000, 0.3169980
51.23000, 1.872004
51.26000, 1.026546
51.29000, 5.6655999E-02
51.32000, 3.311382
51.35000, 1.218584
51.38000, 1.968699
51.41000, 2.075224
51.44000, 3.591747
51.47000, 2.055063
51.50000, 3.006006
51.53000, 3.598803
51.56000, 3.495798
51.59000, 3.178595
51.62000, 3.926796
51.65000, 2.355793
51.68000, 0.2327380
51.71000, 1.422993
51.74000, 1.030899
51.77000, 0.2050610
51.80000, 8.3460003E-02
51.83000, 0.3746510
51.86000, 0.6159550
51.89000, 0.4433440
51.92000, 0.4974060
51.95000, 7.6241001E-02
51.98000, 1.651871
52.01000, 3.561588
52.04000, 4.784815
52.07000, 4.017527
52.10000, 1.700729
52.13000, 7.5317003E-02
52.16000, 1.155678
52.19000, 2.207521
52.22000, 3.480350
52.25000, 3.222458
52.28000, 3.079227
52.31000, 4.255878
52.34000, 2.646904
52.37000, 2.374996
52.40000, 2.482962
52.43000, 2.372494
52.46000, 1.937996
52.49000, 1.927959
52.52000, 3.083193
52.55000, 2.604368
52.58000, 2.560638
52.61000, 0.2274510
52.64000, 3.838419
52.67000, 5.898262
52.70000, 6.490314
52.73000, 1.218531
52.76000, 3.511837
52.79000, 2.777370
52.82000, 1.918428
52.85000, 5.284039
52.88000, 0.8648970
52.91000, 4.163418
52.94000, 4.381115
52.97000, 3.610111
53.00000, 3.435736
53.03000, 1.927677
53.06000, 1.811295
53.09000, 1.980728
53.12000, 1.417925
53.15000, 0.7492520
53.18000, 1.262615
53.21000, 0.3178010
53.24000, 1.527924
53.27000, 2.841583
53.30000, 4.195477
53.33000, 4.337399
53.36000, 7.064728
53.39000, 4.665594
53.42000, 4.737980
53.45000, 5.171890
53.48000, 2.178621
53.51000, 1.440073
53.54000, 2.220743
53.57000, 2.832434
53.60000, 2.517145
53.63000, 2.942472
53.66000, 4.260818
53.69000, 2.969181
53.72000, 1.653158
53.75000, 4.071949
53.78000, 4.893757
53.81000, 2.607868
53.84000, 2.600353
53.87000, 2.789255
53.90000, 1.305767
53.93000, 2.085556
53.96000, 3.002235
53.99000, 1.824745
54.02000, 0.7271750
54.05000, 0.1499750
54.08000, 2.699474
54.11000, 4.562143
54.14000, 4.148672
54.17000, 4.420795
54.20000, 5.625713
54.23000, 4.006138
54.26000, 4.387079
54.29000, 4.591030
54.32000, 3.156500
54.35000, 4.293407
54.38000, 3.147295
54.41000, 1.234127
54.44000, 3.5301000E-02
54.47000, 0.7811090
54.50000, 2.019569
54.53000, 1.982819
54.56000, 1.994156
54.59000, 1.819880
54.62000, 1.974785
54.65000, 2.947781
54.68000, 2.645708
54.71000, 3.338676
54.74000, 3.547729
54.77000, 3.115271
54.80000, 1.955023
54.83000, 2.310747
54.86000, 3.018293
54.89000, 3.865761
54.92000, 4.310850
54.95000, 4.656467
54.98000, 4.648214
55.01000, 4.459503
55.04000, 4.168743
55.07000, 3.674545
55.10000, 3.285372
55.13000, 3.065624
55.16000, 3.119802
55.19000, 3.827412
55.22000, 4.139847
55.25000, 4.273254
55.28000, 5.189585
55.31000, 5.442663
55.34000, 3.753300
55.37000, 1.811985
55.40000, 1.383146
55.43000, 2.762770
55.46000, 3.961533
55.49000, 4.232994
55.52000, 4.098923
55.55000, 4.213760
55.58000, 5.824543
55.61000, 7.839611
55.64000, 7.593952
55.67000, 4.916822
55.70000, 3.807825
55.73000, 2.282745
55.76000, 1.765232
55.79000, 1.677252
55.82000, 0.1772380
55.85000, 0.8890170
55.88000, 1.640877
55.91000, 1.970356
55.94000, 4.126244
55.97000, 5.647549
56.00000, 4.699268
56.03000, 4.309303
56.06000, 4.357853
56.09000, 4.353416
56.12000, 4.174496
56.15000, 5.699482
56.18000, 5.620296
56.21000, 2.879128
56.24000, 4.187201
56.27000, 4.242960
56.30000, 2.847914
56.33000, 3.210762
56.36000, 4.174839
56.39000, 3.438158
56.42000, 3.587418
56.45000, 5.633572
56.48000, 6.970520
56.51000, 5.411760
56.54000, 1.450294
56.57000, 1.106720
56.60000, 1.569832
56.63000, 0.5041350
56.66000, 0.8307950
56.69000, 1.039532
56.72000, 0.2505440
56.75000, 0.2962380
56.78000, 0.8986530
56.81000, 1.889675
56.84000, 0.6697320
56.87000, 1.630604
56.90000, 2.442810
56.93000, 3.156185
56.96000, 3.647219
56.99000, 3.546663
57.02000, 3.526506
57.05000, 3.149616
57.08000, 3.158186
57.11000, 3.071016
57.14000, 3.814732
57.17000, 4.825888
57.20000, 4.919796
57.23000, 4.747297
57.26000, 3.421595
57.29000, 2.268480
57.32000, 2.710781
57.35000, 2.181299
57.38000, 3.105906
57.41000, 3.336809
57.44000, 3.134501
57.47000, 0.5572190
57.50000, 1.155055
57.53000, 0.5774060
57.56000, 0.7792210
57.59000, 1.845375
57.62000, 2.015388
57.65000, 1.252586
57.68000, 1.066576
57.71000, 1.263111
57.74000, 3.248035
57.77000, 1.649826
57.80000, 2.872192
57.83000, 3.052452
57.86000, 1.610611
57.89000, 1.324387
57.92000, 0.4077510
57.95000, 0.2507970
57.98000, 0.3246060
58.01000, 2.680933
58.04000, 4.446039
58.07000, 3.682367
58.10000, 3.523912
58.13000, 2.878222
58.16000, 2.836235
58.19000, 2.225948
58.22000, 2.481955
58.25000, 2.262047
58.28000, 1.338247
58.31000, 1.778360
58.34000, 2.961164
58.37000, 3.014980
58.40000, 4.659126
58.43000, 6.051935
58.46000, 4.706285
58.49000, 3.025499
58.52000, 3.724363
58.55000, 3.624674
58.58000, 3.622530
58.61000, 3.920126
58.64000, 5.095974
58.67000, 3.690536
58.70000, 4.590773
58.73000, 1.850891
58.76000, 3.942198
58.79000, 2.782446
58.82000, 8.6228997E-02
58.85000, 1.032284
58.88000, 2.877226
58.91000, 1.539780
58.94000, 0.9779740
58.97000, 1.423758
59.00000, 1.078726
59.03000, 1.560150
59.06000, 1.861742
59.09000, 1.917454
59.12000, 2.683411
59.15000, 1.385000
59.18000, 0.5302280
59.21000, 2.256393
59.24000, 3.220907
59.27000, 3.783018
59.30000, 7.999048
59.33000, 10.59899
59.36000, 10.89880
59.39000, 11.99665
59.42000, 12.50956
59.45000, 16.09965
59.48000, 18.54237
59.51000, 18.65463
59.54000, 18.04652
59.57000, 17.38536
59.60000, 18.12144
59.63000, 18.58256
59.66000, 17.21354
59.69000, 16.22428
59.72000, 16.20856
59.75000, 16.13916
59.78000, 16.41393
59.81000, 19.55964
59.84000, 21.10537
59.87000, 21.04456
59.90000, 21.01732
59.93000, 19.38832
59.96000, 20.49406
59.99000, 20.66402
60.02000, 18.54591
60.05000, 16.00768
60.08000, 16.32245
60.11000, 13.03661
60.14000, 11.09185
60.17000, 9.785959
60.20000, 7.660387
60.23000, 6.410864
60.26000, 6.970772
60.29000, 7.814909
60.32000, 7.528049
60.35000, 6.130148
60.38000, 8.390854
60.41000, 7.682323
60.44000, 5.364767
60.47000, 7.281464
60.50000, 4.859171
60.53000, 1.965725
60.56000, 3.764997
60.59000, 4.223946
60.62000, 6.187849
60.65000, 7.240133
60.68000, 4.682165
60.71000, 1.546072
60.74000, 0.2309320
60.77000, 0.5440880
60.80000, 2.043314
60.83000, 2.710363
60.86000, 2.743118
60.89000, 1.796522
60.92000, 0.9548890
60.95000, 0.6821350
60.98000, 0.1917950
61.01000, 1.065775
61.04000, 2.969250
61.07000, 3.193848
61.10000, 3.758205
61.13000, 4.887976
61.16000, 3.418440
61.19000, 2.710913
61.22000, 4.592825
61.25000, 4.857773
61.28000, 2.499247
61.31000, 1.295933
61.34000, 1.798319
61.37000, 2.181723
61.40000, 3.318102
61.43000, 4.649351
61.46000, 4.613239
61.49000, 6.407793
61.52000, 7.682281
61.55000, 3.785313
61.58000, 0.9596520
61.61000, 0.9605060
61.64000, 7.7229999E-02
61.67000, 4.0320000E-03
61.70000, 3.015514
61.73000, 3.443846
61.76000, 1.888063
61.79000, 1.079741
61.82000, 0.4354100
61.85000, 0.6551700
61.88000, 0.4942110
61.91000, 0.1107900
61.94000, 6.3379998E-03
61.97000, 0.0000000E+00
##END=



