##NAMES=Naumannite
##RRUFFID=R070505
##IDEAL CHEMISTRY=Ag^1+^_2_Se^2-^
##LOCALITY=DeLamar mine, Silver City District, Owyhee County, Idaho, USA
##OWNER=RRUFF
##SOURCE=James Shigley
##DESCRIPTION=Dark gray metallic massive
##DIFFRACTION SAMPLE DESCRIPTION=Powder, using Mo radiation
##STATUS=The identification of this mineral is not yet confirmed.
##URL=rruff.info/R070505
6.880000, 0.0000000E+00
6.910000, 5.270615
6.940000, 1.240051
6.970000, 2.141891
7.000000, 7.593063
7.030000, 7.983429
7.060000, 4.099808
7.090000, 0.6577610
7.120000, 0.5591280
7.150000, 1.250259
7.180000, 1.680099
7.210000, 1.439102
7.240000, 3.941025
7.270000, 4.572342
7.300000, 5.366257
7.330000, 6.695618
7.360000, 9.243591
7.390000, 12.47951
7.420000, 10.75394
7.450000, 12.92044
7.480000, 8.131027
7.510000, 15.43813
7.540000, 15.41661
7.570000, 20.22527
7.600000, 26.38492
7.630000, 24.37161
7.660000, 28.35677
7.690000, 22.85872
7.720000, 29.47775
7.750000, 28.91592
7.780000, 26.87462
7.810000, 30.85397
7.840000, 31.99890
7.870000, 33.05341
7.900000, 33.82286
7.930000, 32.00572
7.960000, 27.92650
7.990000, 28.10883
8.020000, 26.96538
8.050000, 24.22681
8.080000, 25.69989
8.110000, 28.04541
8.140000, 30.16412
8.170000, 29.72186
8.200000, 26.08940
8.230000, 23.34961
8.260000, 23.05630
8.290000, 19.22539
8.320000, 20.01268
8.350000, 25.09406
8.380000, 25.81839
8.410000, 25.77960
8.440000, 29.12251
8.470000, 31.13708
8.500000, 27.42157
8.530000, 25.84477
8.560000, 28.75719
8.590000, 25.13785
8.620000, 20.81265
8.650000, 22.19768
8.680000, 21.59093
8.710000, 23.86766
8.740000, 28.34984
8.770000, 24.89052
8.800000, 20.05865
8.830000, 23.10979
8.860000, 23.07446
8.890000, 18.77293
8.920000, 17.46635
8.950000, 18.66289
8.980000, 16.25864
9.010000, 14.28769
9.040000, 16.02916
9.070000, 18.91508
9.100000, 21.08453
9.130000, 24.07852
9.160000, 24.39113
9.190000, 26.43732
9.220000, 30.85815
9.250000, 32.17361
9.280000, 30.44775
9.310000, 24.57256
9.340000, 19.24399
9.370000, 18.21109
9.400000, 17.00883
9.430000, 13.98724
9.460000, 15.14523
9.490000, 17.96286
9.520000, 18.15408
9.550000, 18.15805
9.580000, 12.34521
9.610000, 16.20007
9.640000, 13.96150
9.670000, 11.96735
9.700000, 15.74573
9.730000, 18.24954
9.760000, 19.44676
9.790000, 20.57942
9.820000, 20.25948
9.850000, 16.24289
9.880000, 12.83165
9.910000, 13.11273
9.940000, 14.30312
9.970000, 14.26480
10.00000, 17.76773
10.03000, 23.46291
10.06000, 26.58627
10.09000, 26.81845
10.12000, 25.63417
10.15000, 21.89684
10.18000, 16.39008
10.21000, 12.44841
10.24000, 6.976807
10.27000, 2.791229
10.30000, 6.928314
10.33000, 14.00369
10.36000, 17.37331
10.39000, 18.85243
10.42000, 20.32585
10.45000, 21.30490
10.48000, 21.96532
10.51000, 19.60286
10.54000, 23.32698
10.57000, 23.28360
10.60000, 25.19846
10.63000, 28.59613
10.66000, 36.58066
10.69000, 37.69662
10.72000, 34.68956
10.75000, 34.76617
10.78000, 29.83223
10.81000, 24.46848
10.84000, 24.43970
10.87000, 25.37567
10.90000, 26.46828
10.93000, 24.69128
10.96000, 19.55457
10.99000, 18.23999
11.02000, 17.81541
11.05000, 17.42674
11.08000, 20.19086
11.11000, 21.73665
11.14000, 26.41805
11.17000, 30.47391
11.20000, 25.98318
11.23000, 20.28381
11.26000, 18.70369
11.29000, 17.71774
11.32000, 19.85193
11.35000, 20.85619
11.38000, 19.85643
11.41000, 20.48560
11.44000, 21.12564
11.47000, 21.36252
11.50000, 20.17719
11.53000, 19.25058
11.56000, 17.90068
11.59000, 16.57144
11.62000, 11.88980
11.65000, 7.575745
11.68000, 5.381241
11.71000, 4.541275
11.74000, 7.619736
11.77000, 6.459671
11.80000, 9.626038
11.83000, 11.62877
11.86000, 10.66684
11.89000, 13.73824
11.92000, 16.92493
11.95000, 15.38588
11.98000, 15.64706
12.01000, 18.38445
12.04000, 16.01302
12.07000, 16.90071
12.10000, 23.69453
12.13000, 26.05646
12.16000, 22.46442
12.19000, 21.72241
12.22000, 22.53043
12.25000, 22.10342
12.28000, 20.60339
12.31000, 19.29433
12.34000, 20.77921
12.37000, 20.69104
12.40000, 19.92786
12.43000, 22.80859
12.46000, 22.68231
12.49000, 20.22694
12.52000, 17.13251
12.55000, 14.93596
12.58000, 14.33235
12.61000, 9.355591
12.64000, 7.594711
12.67000, 9.270706
12.70000, 11.00455
12.73000, 12.99121
12.76000, 12.15770
12.79000, 11.10802
12.82000, 12.02910
12.85000, 8.135971
12.88000, 6.633575
12.91000, 8.760971
12.94000, 7.481079
12.97000, 5.165878
13.00000, 6.273407
13.03000, 8.974640
13.06000, 10.53351
13.09000, 11.50407
13.12000, 9.749252
13.15000, 6.830093
13.18000, 3.919525
13.21000, 1.985580
13.24000, 1.722183
13.27000, 0.7686000
13.30000, 3.258896
13.33000, 1.547852
13.36000, 0.6663510
13.39000, 0.5493470
13.42000, 2.786102
13.45000, 4.807053
13.48000, 4.852463
13.51000, 4.326355
13.54000, 4.107651
13.57000, 5.113388
13.60000, 7.062531
13.63000, 5.403061
13.66000, 3.062027
13.69000, 0.1470790
13.72000, 0.6325840
13.75000, 0.3972630
13.78000, 1.912842
13.81000, 0.4784090
13.84000, 0.3976440
13.87000, 2.752243
13.90000, 6.288055
13.93000, 11.37968
13.96000, 16.40939
13.99000, 17.21347
14.02000, 16.17650
14.05000, 17.10719
14.08000, 18.93190
14.11000, 22.95255
14.14000, 25.16748
14.17000, 30.38867
14.20000, 36.28217
14.23000, 42.33464
14.26000, 50.11145
14.29000, 58.78912
14.32000, 66.87456
14.35000, 66.90950
14.38000, 67.91092
14.41000, 64.62671
14.44000, 54.24794
14.47000, 43.52052
14.50000, 34.67650
14.53000, 26.52477
14.56000, 20.83336
14.59000, 18.76022
14.62000, 18.64688
14.65000, 21.52409
14.68000, 27.55942
14.71000, 35.55528
14.74000, 47.75433
14.77000, 62.10959
14.80000, 74.73598
14.83000, 82.38452
14.86000, 91.83521
14.89000, 98.36798
14.92000, 104.4589
14.95000, 104.1729
14.98000, 99.26587
15.01000, 95.76195
15.04000, 102.6241
15.07000, 116.1342
15.10000, 123.4094
15.13000, 127.4536
15.16000, 133.0097
15.19000, 140.5637
15.22000, 143.1298
15.25000, 144.0718
15.28000, 152.7467
15.31000, 166.6815
15.34000, 187.7682
15.37000, 215.0670
15.40000, 247.3055
15.43000, 277.8968
15.46000, 293.4250
15.49000, 292.4950
15.52000, 278.7119
15.55000, 258.5965
15.58000, 240.5049
15.61000, 236.1551
15.64000, 246.9340
15.67000, 266.4008
15.70000, 290.3974
15.73000, 319.8967
15.76000, 345.9410
15.79000, 366.7640
15.82000, 375.3139
15.85000, 380.7993
15.88000, 373.2257
15.91000, 368.0322
15.94000, 353.7972
15.97000, 330.8300
16.00000, 294.7713
16.03000, 252.7483
16.06000, 209.8459
16.09000, 164.5220
16.12000, 122.8848
16.15000, 90.71715
16.18000, 67.81606
16.21000, 50.05963
16.24000, 34.84186
16.27000, 23.54475
16.30000, 19.10222
16.33000, 16.66631
16.36000, 13.41396
16.39000, 12.45912
16.42000, 12.46977
16.45000, 13.21489
16.48000, 12.28951
16.51000, 11.71863
16.54000, 12.83823
16.57000, 13.25923
16.60000, 11.91360
16.63000, 12.20737
16.66000, 13.69348
16.69000, 14.97997
16.72000, 18.28410
16.75000, 19.51897
16.78000, 27.53346
16.81000, 31.32327
16.84000, 39.22643
16.87000, 49.43799
16.90000, 58.72437
16.93000, 66.67500
16.96000, 76.77829
16.99000, 86.20787
17.02000, 87.99286
17.05000, 82.47006
17.08000, 70.34549
17.11000, 55.81813
17.14000, 42.86995
17.17000, 33.38704
17.20000, 24.22983
17.23000, 16.41199
17.26000, 11.08456
17.29000, 6.986282
17.32000, 3.642090
17.35000, 2.009537
17.38000, 0.6330410
17.41000, 2.577164
17.44000, 4.968849
17.47000, 5.633110
17.50000, 4.858727
17.53000, 6.019081
17.56000, 3.653458
17.59000, 5.822540
17.62000, 6.222870
17.65000, 5.273888
17.68000, 6.088135
17.71000, 6.754051
17.74000, 5.464600
17.77000, 5.016052
17.80000, 2.963921
17.83000, 2.349350
17.86000, 12.37847
17.89000, 24.08624
17.92000, 41.70781
17.95000, 64.24759
17.98000, 86.07026
18.01000, 110.6998
18.04000, 168.9262
18.07000, 211.2445
18.10000, 206.6956
18.13000, 209.6285
18.16000, 209.8152
18.19000, 198.9027
18.22000, 186.6719
18.25000, 172.6870
18.28000, 156.4828
18.31000, 140.3463
18.34000, 126.8556
18.37000, 113.3506
18.40000, 97.50629
18.43000, 83.64272
18.46000, 72.84885
18.49000, 62.88469
18.52000, 52.51271
18.55000, 43.20298
18.58000, 35.53923
18.61000, 25.74171
18.64000, 19.33484
18.67000, 12.41862
18.70000, 7.968010
18.73000, 7.569000
18.76000, 9.839622
18.79000, 13.68983
18.82000, 13.41761
18.85000, 9.181999
18.88000, 6.937927
18.91000, 4.709435
18.94000, 3.712494
18.97000, 5.238060
19.00000, 8.233170
19.03000, 8.357803
19.06000, 5.362953
19.09000, 7.266617
19.12000, 12.79278
19.15000, 16.06046
19.18000, 20.88164
19.21000, 22.35626
19.24000, 25.73180
19.27000, 31.69946
19.30000, 35.89439
19.33000, 40.59492
19.36000, 47.53236
19.39000, 55.41560
19.42000, 64.94329
19.45000, 75.38548
19.48000, 84.93365
19.51000, 90.43655
19.54000, 97.19384
19.57000, 99.98746
19.60000, 98.92046
19.63000, 97.33080
19.66000, 98.66351
19.69000, 96.73655
19.72000, 92.22662
19.75000, 90.09821
19.78000, 87.82356
19.81000, 81.26827
19.84000, 74.17312
19.87000, 63.82372
19.90000, 51.44986
19.93000, 41.78711
19.96000, 31.73215
19.99000, 24.79796
20.02000, 24.23184
20.05000, 25.21301
20.08000, 28.30402
20.11000, 36.13634
20.14000, 48.21252
20.17000, 66.58190
20.20000, 91.59952
20.23000, 121.5363
20.26000, 146.1902
20.29000, 169.9255
20.32000, 192.3249
20.35000, 210.6034
20.38000, 222.1833
20.41000, 216.0844
20.44000, 196.8639
20.47000, 175.7570
20.50000, 150.3715
20.53000, 124.9315
20.56000, 97.66029
20.59000, 74.02847
20.62000, 56.54172
20.65000, 43.47407
20.68000, 35.69756
20.71000, 30.13014
20.74000, 24.47578
20.77000, 18.26489
20.80000, 15.15913
20.83000, 12.38155
20.86000, 8.713493
20.89000, 4.544815
20.92000, 3.841812
20.95000, 3.781090
20.98000, 3.957054
21.01000, 7.098473
21.04000, 9.379707
21.07000, 9.383698
21.10000, 8.514206
21.13000, 7.587959
21.16000, 6.489517
21.19000, 6.465965
21.22000, 8.994270
21.25000, 10.74604
21.28000, 8.013954
21.31000, 5.505379
21.34000, 3.764442
21.37000, 3.818665
21.40000, 2.925186
21.43000, 2.925522
21.46000, 4.042999
21.49000, 3.701904
21.52000, 5.597313
21.55000, 7.444855
21.58000, 7.543465
21.61000, 6.412010
21.64000, 6.212639
21.67000, 9.439278
21.70000, 13.45597
21.73000, 18.91770
21.76000, 23.73147
21.79000, 29.63126
21.82000, 35.42609
21.85000, 41.86395
21.88000, 45.96484
21.91000, 49.21873
21.94000, 51.81966
21.97000, 52.42082
22.00000, 53.50761
22.03000, 50.89758
22.06000, 48.00758
22.09000, 44.86960
22.12000, 39.02663
22.15000, 32.47166
22.18000, 26.25571
22.21000, 23.71077
22.24000, 20.56083
22.27000, 19.80589
22.30000, 21.49696
22.33000, 24.61802
22.36000, 28.39509
22.39000, 30.81516
22.42000, 33.70522
22.45000, 38.03130
22.48000, 38.58334
22.51000, 39.94441
22.54000, 39.47523
22.57000, 40.77626
22.60000, 36.38101
22.63000, 34.37635
22.66000, 26.90838
22.69000, 23.64642
22.72000, 19.52554
22.75000, 14.01656
22.78000, 7.582565
22.81000, 4.967064
22.84000, 4.131569
22.87000, 4.467110
22.90000, 3.409622
22.93000, 3.944656
22.96000, 2.956909
22.99000, 1.289719
23.02000, 3.402435
23.05000, 5.494392
23.08000, 8.218391
23.11000, 11.63728
23.14000, 11.56796
23.17000, 11.13065
23.20000, 9.838333
23.23000, 8.766930
23.26000, 7.659073
23.29000, 5.568275
23.32000, 5.296982
23.35000, 3.771660
23.38000, 3.014641
23.41000, 3.366089
23.44000, 4.043625
23.47000, 3.539803
23.50000, 3.618576
23.53000, 5.469444
23.56000, 6.296387
23.59000, 4.871597
23.62000, 4.857040
23.65000, 3.845001
23.68000, 4.641029
23.71000, 7.484467
23.74000, 10.53143
23.77000, 11.50281
23.80000, 13.00571
23.83000, 11.42466
23.86000, 8.252640
23.89000, 7.851753
23.92000, 8.579697
23.95000, 6.183578
23.98000, 5.429588
24.01000, 6.096275
24.04000, 5.752480
24.07000, 4.992897
24.10000, 3.779488
24.13000, 4.271774
24.16000, 4.711510
24.19000, 15.84512
24.22000, 11.48045
24.25000, 11.18876
24.28000, 8.463638
24.31000, 3.909218
24.34000, 6.7032002E-02
24.37000, 2.418762
24.40000, 2.802452
24.43000, 2.986832
24.46000, 2.755501
24.49000, 3.515755
24.52000, 5.300774
24.55000, 4.952057
24.58000, 3.879120
24.61000, 2.534286
24.64000, 1.679138
24.67000, 0.6390380
24.70000, 0.2034840
24.73000, 1.125061
24.76000, 1.683556
24.79000, 2.545555
24.82000, 3.104408
24.85000, 3.032829
24.88000, 3.255844
24.91000, 2.198479
24.94000, 0.7204740
24.97000, 1.6487001E-02
25.00000, 1.139473
25.03000, 2.196373
25.06000, 4.194740
25.09000, 4.498001
25.12000, 4.488304
25.15000, 5.173111
25.18000, 3.730682
25.21000, 4.881447
25.24000, 7.961411
25.27000, 11.19164
25.30000, 15.55121
25.33000, 17.86004
25.36000, 26.44074
25.39000, 35.21670
25.42000, 41.92296
25.45000, 46.40048
25.48000, 51.17831
25.51000, 55.40143
25.54000, 58.13383
25.57000, 59.66158
25.60000, 59.75759
25.63000, 56.97595
25.66000, 51.77262
25.69000, 47.49461
25.72000, 39.35494
25.75000, 31.00661
25.78000, 27.61464
25.81000, 25.68299
25.84000, 21.40771
25.87000, 19.20777
25.90000, 18.12121
25.93000, 14.29741
25.96000, 11.42550
25.99000, 9.904472
26.02000, 8.191719
26.05000, 9.061859
26.08000, 11.40431
26.11000, 11.28725
26.14000, 10.66683
26.17000, 10.03971
26.20000, 9.087227
26.23000, 8.426765
26.26000, 4.989044
26.29000, 2.544266
26.32000, 5.409554
26.35000, 8.168892
26.38000, 9.201500
26.41000, 11.26215
26.44000, 11.70541
26.47000, 13.39960
26.50000, 13.04974
26.53000, 11.91188
26.56000, 11.25417
26.59000, 10.54925
26.62000, 11.00735
26.65000, 9.137032
26.68000, 7.446404
26.71000, 6.439796
26.74000, 5.387802
26.77000, 4.434578
26.80000, 4.361542
26.83000, 4.268677
26.86000, 4.432426
26.89000, 1.927040
26.92000, 4.133987
26.95000, 3.007561
26.98000, 2.270767
27.01000, 3.463760
27.04000, 3.809601
27.07000, 2.702492
27.10000, 3.867844
27.13000, 4.174774
27.16000, 4.819916
27.19000, 5.917183
27.22000, 6.479858
27.25000, 7.439705
27.28000, 5.112946
27.31000, 4.005318
27.34000, 4.894379
27.37000, 5.676445
27.40000, 8.903793
27.43000, 10.15586
27.46000, 11.34264
27.49000, 11.30249
27.52000, 10.53316
27.55000, 8.909966
27.58000, 7.280090
27.61000, 4.698593
27.64000, 2.427040
27.67000, 3.796410
27.70000, 4.678421
27.73000, 5.354927
27.76000, 9.129021
27.79000, 10.77264
27.82000, 10.47477
27.85000, 12.78680
27.88000, 12.89291
27.91000, 13.81016
27.94000, 15.35429
27.97000, 13.37917
28.00000, 12.37452
28.03000, 12.74812
28.06000, 14.33301
28.09000, 13.56171
28.12000, 12.06543
28.15000, 12.46761
28.18000, 9.713364
28.21000, 11.29731
28.24000, 13.58421
28.27000, 13.27610
28.30000, 12.64694
28.33000, 9.987694
28.36000, 6.438393
28.39000, 1.239372
28.42000, 0.7412490
28.45000, 1.265862
28.48000, 2.407806
28.51000, 4.114563
28.54000, 3.577400
28.57000, 0.9052430
28.60000, 1.059189
28.63000, 0.6421810
28.66000, 0.2806020
28.69000, 1.216988
28.72000, 0.3019490
28.75000, 0.1256560
28.78000, 0.2534560
28.81000, 1.314186
28.84000, 1.660446
28.87000, 2.057693
28.90000, 4.579010
28.93000, 8.976112
28.96000, 13.38671
28.99000, 14.63682
29.02000, 16.30509
29.05000, 17.35854
29.08000, 19.58417
29.11000, 24.39097
29.14000, 28.90096
29.17000, 30.89613
29.20000, 28.75951
29.23000, 25.64109
29.26000, 24.23388
29.29000, 23.71796
29.32000, 21.56126
29.35000, 18.33379
29.38000, 15.47553
29.41000, 13.50851
29.44000, 11.40150
29.47000, 7.539734
29.50000, 7.320419
29.53000, 7.195442
29.56000, 5.448212
29.59000, 6.974632
29.62000, 10.18092
29.65000, 9.947556
29.68000, 13.11818
29.71000, 17.26665
29.74000, 18.47841
29.77000, 19.94645
29.80000, 21.27576
29.83000, 21.25507
29.86000, 21.47448
29.89000, 20.78635
29.92000, 19.82486
29.95000, 19.28867
29.98000, 16.94379
30.01000, 17.56026
30.04000, 16.68905
30.07000, 18.77840
30.10000, 17.24113
30.13000, 16.77525
30.16000, 19.03088
30.19000, 18.12926
30.22000, 16.06210
30.25000, 14.67431
30.28000, 14.08385
30.31000, 13.74575
30.34000, 12.35341
30.37000, 12.44023
30.40000, 15.17661
30.43000, 17.76800
30.46000, 23.39677
30.49000, 26.58154
30.52000, 27.46099
30.55000, 31.05992
30.58000, 30.86683
30.61000, 31.20680
30.64000, 37.09123
30.67000, 41.83118
30.70000, 39.65862
30.73000, 37.62047
30.76000, 38.22873
30.79000, 38.42245
30.82000, 35.73759
30.85000, 29.79124
30.88000, 24.11834
30.91000, 23.82385
30.94000, 27.25578
30.97000, 28.02812
31.00000, 27.25387
31.03000, 27.01104
31.06000, 24.98264
31.09000, 26.26464
31.12000, 25.57407
31.15000, 23.59197
31.18000, 23.36833
31.21000, 22.52314
31.24000, 24.25340
31.27000, 27.60712
31.30000, 29.91935
31.33000, 31.22709
31.36000, 32.91330
31.39000, 33.01596
31.42000, 44.15704
31.45000, 42.02999
31.48000, 53.46458
31.51000, 45.43010
31.54000, 51.84559
31.57000, 56.35771
31.60000, 59.09059
31.63000, 60.84427
31.66000, 63.85565
31.69000, 64.72295
31.72000, 61.36562
31.75000, 54.58458
31.78000, 49.06149
31.81000, 39.88403
31.84000, 32.73296
31.87000, 28.13900
31.90000, 23.67301
31.93000, 20.49270
31.96000, 16.58608
31.99000, 14.09293
32.02000, 12.75520
32.05000, 10.22327
32.08000, 10.96543
32.11000, 10.57748
32.14000, 9.189568
32.17000, 7.807045
32.20000, 5.872139
32.23000, 4.766693
32.26000, 5.921844
32.29000, 5.997826
32.32000, 5.294022
32.35000, 4.409813
32.38000, 6.097916
32.41000, 3.004761
32.44000, 2.944443
32.47000, 5.979507
32.50000, 7.724068
32.53000, 10.00458
32.56000, 10.32461
32.59000, 11.20516
32.62000, 10.58650
32.65000, 10.29119
32.68000, 10.96644
32.71000, 9.471840
32.74000, 10.14480
32.77000, 12.52769
32.80000, 10.76584
32.83000, 9.850197
32.86000, 11.74979
32.89000, 14.32408
32.92000, 15.56543
32.95000, 20.51842
32.98000, 24.46973
33.01000, 23.01939
33.04000, 22.55339
33.07000, 23.30272
33.10000, 22.00638
33.13000, 24.41739
33.16000, 24.44577
33.19000, 23.28150
33.22000, 21.75058
33.25000, 22.70599
33.28000, 22.36674
33.31000, 23.57182
33.34000, 20.25938
33.37000, 17.20807
33.40000, 19.85821
33.43000, 21.14484
33.46000, 21.14114
33.49000, 15.98140
33.52000, 17.48038
33.55000, 16.31132
33.58000, 15.03309
33.61000, 17.47016
33.64000, 13.06207
33.67000, 15.44086
33.70000, 15.11082
33.73000, 16.02103
33.76000, 14.24672
33.79000, 13.30187
33.82000, 15.04310
33.85000, 15.29754
33.88000, 13.21526
33.91000, 14.20605
33.94000, 9.707138
33.97000, 10.02999
34.00000, 12.43221
34.03000, 10.49228
34.06000, 9.071877
34.09000, 9.598961
34.12000, 12.22956
34.15000, 16.17991
34.18000, 19.50102
34.21000, 22.05038
34.24000, 22.25042
34.27000, 24.90356
34.30000, 27.04124
34.33000, 26.01815
34.36000, 23.25260
34.39000, 21.98266
34.42000, 22.42556
34.45000, 24.22708
34.48000, 24.24913
34.51000, 23.35498
34.54000, 19.24315
34.57000, 16.56993
34.60000, 12.27711
34.63000, 10.16680
34.66000, 10.87158
34.69000, 13.75957
34.72000, 14.32720
34.75000, 15.11387
34.78000, 15.55273
34.81000, 15.41257
34.84000, 16.50789
34.87000, 14.24478
34.90000, 10.14506
34.93000, 9.082596
34.96000, 7.703003
34.99000, 6.643875
35.02000, 6.013611
35.05000, 4.993874
35.08000, 4.516357
35.11000, 3.552017
35.14000, 3.729446
35.17000, 3.207916
35.20000, 3.091103
35.23000, 5.569298
35.26000, 7.391304
35.29000, 6.853409
35.32000, 8.118965
35.35000, 8.354691
35.38000, 8.308685
35.41000, 8.661171
35.44000, 8.741600
35.47000, 8.621681
35.50000, 8.650757
35.53000, 10.51565
35.56000, 7.979729
35.59000, 7.365288
35.62000, 5.864891
35.65000, 2.773071
35.68000, 8.9836001E-02
35.71000, 2.163826
35.74000, 3.634262
35.77000, 3.758057
35.80000, 3.399216
35.83000, 3.304230
35.86000, 2.282127
35.89000, 1.104103
35.92000, 0.5751270
35.95000, 0.4236370
35.98000, 1.375954
36.01000, 1.620689
36.04000, 1.543282
36.07000, 7.3996998E-02
36.10000, 2.332161
36.13000, 0.8169940
36.16000, 3.013046
36.19000, 3.366089
36.22000, 1.840836
36.25000, 2.461288
36.28000, 1.666428
36.31000, 3.153580
36.34000, 0.5462110
36.37000, 1.185822
36.40000, 0.6040420
36.43000, 6.7374997E-02
36.46000, 1.973717
36.49000, 1.822578
36.52000, 1.539024
36.55000, 5.204857
36.58000, 8.078941
36.61000, 8.441505
36.64000, 8.267021
36.67000, 10.26941
36.70000, 11.09915
36.73000, 10.18065
36.76000, 10.54432
36.79000, 10.68523
36.82000, 7.503288
36.85000, 4.847702
36.88000, 6.893250
36.91000, 9.916725
36.94000, 10.67819
36.97000, 10.29616
37.00000, 11.14579
37.03000, 12.59396
37.06000, 10.88344
37.09000, 11.47683
37.12000, 12.42635
37.15000, 8.638985
37.18000, 4.792122
37.21000, 4.668083
37.24000, 3.363449
37.27000, 4.461205
37.30000, 5.539070
37.33000, 5.613815
37.36000, 7.785271
37.39000, 8.381607
37.42000, 6.976929
37.45000, 7.053413
37.48000, 4.556335
37.51000, 2.818932
37.54000, 1.376411
37.57000, 1.309334
37.60000, 1.009689
37.63000, 0.6708370
37.66000, 1.017467
37.69000, 1.618401
37.72000, 3.679596
37.75000, 3.945160
37.78000, 2.872887
37.81000, 2.594170
37.84000, 5.960617
37.87000, 8.004044
37.90000, 8.312523
37.93000, 9.241760
37.96000, 11.20554
37.99000, 11.90458
38.02000, 10.59837
38.05000, 9.014103
38.08000, 9.412479
38.11000, 10.26919
38.14000, 11.81125
38.17000, 10.90985
38.20000, 6.940285
38.23000, 5.410263
38.26000, 3.742172
38.29000, 2.128914
38.32000, 3.446133
38.35000, 4.170559
38.38000, 5.300087
38.41000, 6.977703
38.44000, 6.688904
38.47000, 5.153481
38.50000, 5.697144
38.53000, 8.601463
38.56000, 11.72227
38.59000, 14.34793
38.62000, 15.00896
38.65000, 15.00645
38.68000, 18.93790
38.71000, 19.28281
38.74000, 16.96737
38.77000, 15.57788
38.80000, 14.02464
38.83000, 10.93995
38.86000, 11.70979
38.89000, 14.55267
38.92000, 14.56010
38.95000, 12.38675
38.98000, 10.56323
39.01000, 9.260765
39.04000, 8.088650
39.07000, 5.456287
39.10000, 1.771545
39.13000, 0.4953990
39.16000, 0.3462830
39.19000, 0.9665530
39.22000, 2.044106
39.25000, 5.082809
39.28000, 6.727047
39.31000, 5.255669
39.34000, 1.235107
39.37000, 0.9232250
39.40000, 1.461411
39.43000, 0.5133630
39.46000, 0.8791580
39.49000, 2.054924
39.52000, 3.024784
39.55000, 3.935623
39.58000, 4.274986
39.61000, 4.533394
39.64000, 3.873432
39.67000, 2.754364
39.70000, 2.173084
39.73000, 2.589294
39.76000, 1.285110
39.79000, 3.891418
39.82000, 5.717743
39.85000, 6.105877
39.88000, 6.964085
39.91000, 5.936195
39.94000, 6.853188
39.97000, 5.799789
40.00000, 5.665131
40.03000, 5.839561
40.06000, 5.046883
40.09000, 4.625599
40.12000, 4.324612
40.15000, 6.340282
40.18000, 7.374939
40.21000, 7.679474
40.24000, 6.812965
40.27000, 4.135502
40.30000, 1.198898
40.33000, 1.803001
40.36000, 1.753433
40.39000, 4.203697
40.42000, 6.890732
40.45000, 4.062199
40.48000, 0.2640000
40.51000, 0.1135830
40.54000, 0.6257400
40.57000, 1.414200
40.60000, 3.781403
40.63000, 4.626640
40.66000, 5.120644
40.69000, 6.431728
40.72000, 7.297424
40.75000, 4.944988
40.78000, 3.528366
40.81000, 5.180359
40.84000, 6.697701
40.87000, 6.798473
40.90000, 6.737488
40.93000, 7.860950
40.96000, 7.774841
40.99000, 8.797791
41.02000, 9.463028
41.05000, 8.844193
41.08000, 7.635559
41.11000, 6.960785
41.14000, 6.548641
41.17000, 6.916088
41.20000, 6.323170
41.23000, 8.398205
41.26000, 9.224236
41.29000, 8.722805
41.32000, 9.681160
41.35000, 8.050091
41.38000, 6.216129
41.41000, 5.745045
41.44000, 6.494209
41.47000, 9.622723
41.50000, 10.48780
41.53000, 8.992252
41.56000, 7.137142
41.59000, 5.375179
41.62000, 6.109291
41.65000, 9.733208
41.68000, 8.535385
41.71000, 11.59836
41.74000, 13.29721
41.77000, 13.70562
41.80000, 8.958874
41.83000, 10.86868
41.86000, 10.11000
41.89000, 9.232567
41.92000, 12.07450
41.95000, 8.068367
41.98000, 10.84789
42.01000, 10.91526
42.04000, 12.22212
42.07000, 10.84380
42.10000, 10.29437
42.13000, 12.43026
42.16000, 13.07838
42.19000, 8.465740
42.22000, 9.025146
42.25000, 7.996620
42.28000, 7.840359
42.31000, 10.20883
42.34000, 10.43851
42.37000, 8.418789
42.40000, 6.746796
42.43000, 6.644249
42.46000, 8.794922
42.49000, 9.613373
42.52000, 12.80676
42.55000, 15.12834
42.58000, 14.40982
42.61000, 15.00356
42.64000, 18.48609
42.67000, 18.46408
42.70000, 18.19499
42.73000, 17.06857
42.76000, 17.48618
42.79000, 15.76918
42.82000, 14.52816
42.85000, 12.74646
42.88000, 13.00630
42.91000, 12.30285
42.94000, 12.37925
42.97000, 11.93170
43.00000, 11.46958
43.03000, 10.42793
43.06000, 11.25896
43.09000, 9.045155
43.12000, 9.663399
43.15000, 11.20178
43.18000, 9.411114
43.21000, 5.182152
43.24000, 2.415329
43.27000, 2.506947
43.30000, 4.646053
43.33000, 4.923698
43.36000, 5.933926
43.39000, 8.591228
43.42000, 11.70792
43.45000, 12.05099
43.48000, 11.02826
43.51000, 10.26000
43.54000, 11.35996
43.57000, 10.46223
43.60000, 11.99403
43.63000, 12.68378
43.66000, 11.56496
43.69000, 10.93760
43.72000, 10.33939
43.75000, 8.438194
43.78000, 9.594833
43.81000, 11.34561
43.84000, 11.44979
43.87000, 10.65689
43.90000, 8.517334
43.93000, 7.603615
43.96000, 7.060608
43.99000, 5.812958
44.02000, 5.425835
44.05000, 11.89051
44.08000, 13.83917
44.11000, 2.259071
44.14000, 4.946575
44.17000, 2.812584
44.20000, 0.2952840
44.23000, 10.77982
44.26000, 2.695255
44.29000, 4.210308
44.32000, 4.454079
44.35000, 6.050278
44.38000, 6.376106
44.41000, 6.786407
44.44000, 6.646412
44.47000, 8.366196
44.50000, 9.304184
44.53000, 5.660999
44.56000, 1.565273
44.59000, 1.734928
44.62000, 2.619690
44.65000, 7.029179
44.68000, 8.682629
44.71000, 10.47138
44.74000, 9.577145
44.77000, 9.010006
44.80000, 7.186420
44.83000, 6.273132
44.86000, 6.169018
44.89000, 4.636047
44.92000, 5.215492
44.95000, 7.722061
44.98000, 5.709789
45.01000, 3.360767
45.04000, 4.284416
45.07000, 6.951874
45.10000, 7.484489
45.13000, 7.439510
45.16000, 6.360142
45.19000, 4.903568
45.22000, 6.981285
45.25000, 7.237301
45.28000, 6.099144
45.31000, 6.146328
45.34000, 5.056141
45.37000, 4.771263
45.40000, 6.448872
45.43000, 7.497581
45.46000, 9.806843
45.49000, 12.87897
45.52000, 14.33776
45.55000, 13.97491
45.58000, 12.83479
45.61000, 14.37190
45.64000, 15.73481
45.67000, 14.27382
45.70000, 14.65366
45.73000, 13.29235
45.76000, 13.94351
45.79000, 16.71024
45.82000, 20.65302
45.85000, 21.92693
45.88000, 20.94041
45.91000, 17.52528
45.94000, 12.88525
45.97000, 10.42176
46.00000, 7.668785
46.03000, 4.887875
46.06000, 5.759266
46.09000, 6.660843
46.12000, 3.055603
46.15000, 1.246552
46.18000, 0.9399030
46.21000, 0.5258260
46.24000, 2.179203
46.27000, 3.196167
46.30000, 2.317356
46.33000, 1.507511
46.36000, 0.4714850
46.39000, 0.4721030
46.42000, 4.526222
46.45000, 7.984329
46.48000, 9.105949
46.51000, 9.785362
46.54000, 10.69288
46.57000, 7.111282
46.60000, 4.718990
46.63000, 0.4806520
46.66000, 8.9305997E-02
46.69000, 1.529194
46.72000, 2.106342
46.75000, 2.752869
46.78000, 0.7978630
46.81000, 0.5189360
46.84000, 1.828011
46.87000, 0.0000000E+00
##END=



