##NAMES=Phosphosiderite
##RRUFFID=R070519
##IDEAL CHEMISTRY=Fe^3+^PO_4_&#183;2H_2_O
##LOCALITY=Stewart mine, Pala, San Diego County, California, USA
##OWNER=RRUFF
##SOURCE=James Shigley
##DESCRIPTION=Bluish-purple fine-grained botryoidal and tabular crystals
##DIFFRACTION SAMPLE DESCRIPTION=Powder, using Mo radiation
##STATUS=The identification of this mineral has been confirmed by X-ray diffraction.
##URL=rruff.info/R070519
##CELL PARAMETERS=a: 5.298(3) b: 9.806(1) c: 8.720(2) alpha: 90 beta: 91.02(6) gamma: 90 volume: 453.0(3) crystal system: monoclinic
5.740000, 0.0000000E+00
5.760000, 1.933695
5.780000, 4.026091
5.800000, 2.354583
5.820000, 0.2034760
5.840000, 0.7292720
5.860000, 2.211941
5.880000, 5.515410
5.900000, 7.431570
5.920000, 15.06521
5.940000, 26.39632
5.960000, 36.27793
5.980000, 50.26403
6.000000, 70.25576
6.020000, 92.00274
6.040000, 120.7396
6.060000, 157.2346
6.080000, 210.0602
6.100000, 265.9864
6.120000, 324.0122
6.140000, 383.7849
6.160000, 446.7496
6.180000, 506.4096
6.200000, 560.8954
6.220000, 607.4374
6.240000, 642.6804
6.260000, 670.5104
6.280000, 684.6397
6.300000, 682.5957
6.320000, 658.3503
6.340000, 610.6957
6.360000, 558.0186
6.380000, 503.2856
6.400000, 442.3221
6.420000, 387.6740
6.440000, 325.6887
6.460000, 262.9193
6.480000, 206.2039
6.500000, 157.5592
6.520000, 114.2629
6.540000, 82.29507
6.560000, 63.79677
6.580000, 48.53125
6.600000, 34.20778
6.620000, 25.11347
6.640000, 19.97942
6.660000, 15.82452
6.680000, 14.58222
6.700000, 14.62909
6.720000, 11.98582
6.740000, 6.741755
6.760000, 3.499976
6.780000, 0.1648030
6.800000, 1.226894
6.820000, 0.4095300
6.840000, 0.7903910
6.860000, 1.017284
6.880000, 0.5333670
6.900000, 1.417996
6.920000, 0.3081810
6.940000, 0.2384230
6.960000, 0.9647480
6.980000, 0.4547440
7.000000, 0.9595230
7.020000, 2.301842
7.040000, 0.9540100
7.060000, 0.2287820
7.080000, 0.3445340
7.100000, 8.1352003E-02
7.120000, 1.479761
7.140000, 0.2347300
7.160000, 1.903962
7.180000, 9.286699
7.200000, 21.58619
7.220000, 37.66416
7.240000, 53.94567
7.260000, 67.92393
7.280000, 81.57143
7.300000, 98.47679
7.320000, 117.3934
7.340000, 141.3081
7.360000, 170.1232
7.380000, 188.2680
7.400000, 199.3046
7.420000, 205.5909
7.440000, 211.8595
7.460000, 211.3449
7.480000, 202.1281
7.500000, 191.5601
7.520000, 178.0180
7.540000, 157.0942
7.560000, 137.4665
7.580000, 115.6707
7.600000, 94.03691
7.620000, 76.92424
7.640000, 58.55247
7.660000, 43.56812
7.680000, 30.42412
7.700000, 18.54359
7.720000, 10.62551
7.740000, 3.627759
7.760000, 1.701384
7.780000, 1.580617
7.800000, 5.564216
7.820000, 2.474765
7.840000, 1.150787
7.860000, 1.925014
7.880000, 1.066681
7.900000, 6.128734
7.920000, 3.706591
7.940000, 0.9146740
7.960000, 3.252443
7.980000, 8.463095
8.000000, 23.33367
8.020000, 42.84798
8.040000, 66.29668
8.060000, 95.16813
8.080000, 135.4935
8.100000, 187.4966
8.120000, 251.4567
8.140000, 327.1413
8.160000, 418.8755
8.180000, 532.2557
8.200000, 634.8826
8.220000, 752.2094
8.240000, 854.7989
8.260000, 944.0534
8.280000, 1014.551
8.300000, 1053.058
8.320000, 1059.734
8.340000, 1041.086
8.360000, 989.5154
8.380000, 924.5293
8.400000, 834.0063
8.420000, 747.1517
8.440000, 661.0850
8.460000, 589.3779
8.480000, 545.8884
8.500000, 523.8663
8.520000, 538.1902
8.540000, 593.3575
8.560000, 678.3506
8.580000, 804.8560
8.600000, 955.8408
8.620000, 1126.737
8.640000, 1328.764
8.660000, 1524.152
8.680000, 1731.715
8.700000, 1866.213
8.720000, 1985.808
8.740000, 2072.484
8.760000, 2105.907
8.780000, 2108.890
8.800000, 2077.266
8.820000, 1998.598
8.840000, 1906.958
8.860000, 1786.170
8.880000, 1664.737
8.900000, 1539.239
8.920000, 1411.696
8.940000, 1302.407
8.960000, 1210.644
8.980000, 1134.674
9.000000, 1060.559
9.020000, 993.2869
9.040000, 922.5206
9.060000, 873.2280
9.080000, 853.4095
9.100000, 854.8253
9.120000, 903.6450
9.140000, 998.7892
9.160000, 1129.326
9.180000, 1319.456
9.200000, 1542.102
9.220000, 1810.569
9.240000, 2102.128
9.260000, 2407.122
9.280000, 2729.897
9.300000, 3000.497
9.320000, 3261.611
9.340000, 3406.781
9.360000, 3497.157
9.380000, 3504.311
9.400000, 3396.625
9.420000, 3201.333
9.440000, 2936.049
9.460000, 2591.858
9.480000, 2278.362
9.500000, 1917.304
9.520000, 1591.107
9.540000, 1268.630
9.560000, 993.2657
9.580000, 778.6470
9.600000, 594.2558
9.620000, 462.4333
9.640000, 362.6140
9.660000, 298.0621
9.680000, 251.2971
9.700000, 228.7001
9.720000, 215.0740
9.740000, 209.4198
9.760000, 220.2043
9.780000, 238.8969
9.800000, 268.5602
9.820000, 316.7175
9.840000, 367.1777
9.860000, 426.0759
9.880000, 481.7104
9.900000, 536.3596
9.920000, 588.1129
9.940000, 622.7847
9.960000, 647.6840
9.980000, 646.3618
10.00000, 630.7744
10.02000, 600.7195
10.04000, 562.4003
10.06000, 523.9348
10.08000, 486.1888
10.10000, 444.3502
10.12000, 403.3091
10.14000, 370.2855
10.16000, 343.9192
10.18000, 321.2178
10.20000, 300.4012
10.22000, 280.2937
10.24000, 258.7056
10.26000, 243.3109
10.28000, 230.0436
10.30000, 215.4299
10.32000, 195.9800
10.34000, 177.0883
10.36000, 155.4293
10.38000, 131.5048
10.40000, 111.9846
10.42000, 89.50797
10.44000, 65.34681
10.46000, 43.37308
10.48000, 34.21078
10.50000, 26.98191
10.52000, 12.76349
10.54000, 3.618602
10.56000, 2.456339
10.58000, 2.557176
10.60000, 5.125659
10.62000, 3.789357
10.64000, 2.984713
10.66000, 3.289033
10.68000, 5.303867
10.70000, 1.065615
10.72000, 0.1122620
10.74000, 2.274410
10.76000, 0.5236730
10.78000, 3.445852
10.80000, 2.342978
10.82000, 0.6020390
10.84000, 7.981728
10.86000, 2.498022
10.88000, 3.633800
10.90000, 11.82208
10.92000, 15.99086
10.94000, 18.69019
10.96000, 22.89895
10.98000, 31.87527
11.00000, 38.91211
11.02000, 47.47844
11.04000, 64.84232
11.06000, 89.50159
11.08000, 114.4075
11.10000, 147.7251
11.12000, 194.1452
11.14000, 247.5842
11.16000, 317.0510
11.18000, 397.1383
11.20000, 481.6920
11.22000, 564.1175
11.24000, 664.0958
11.26000, 758.0798
11.28000, 841.2101
11.30000, 901.8122
11.32000, 940.9657
11.34000, 953.4215
11.36000, 931.3093
11.38000, 882.3186
11.40000, 815.3798
11.42000, 734.0527
11.44000, 651.0442
11.46000, 547.3127
11.48000, 435.2319
11.50000, 335.4069
11.52000, 247.3576
11.54000, 179.9998
11.56000, 127.6748
11.58000, 85.50653
11.60000, 53.68556
11.62000, 31.35241
11.64000, 13.17310
11.66000, 1.244678
11.68000, 7.788279
11.70000, 2.850863
11.72000, 2.780523
11.74000, 7.769817
11.76000, 3.615825
11.78000, 0.4054380
11.80000, 1.123175
11.82000, 0.8114740
11.84000, 0.7352550
11.86000, 3.687851
11.88000, 4.789566
11.90000, 2.999918
11.92000, 1.990486
11.94000, 2.441696
11.96000, 1.145228
11.98000, 4.701666
12.00000, 3.920248
12.02000, 17.96664
12.04000, 33.34645
12.06000, 51.40075
12.08000, 73.28649
12.10000, 105.6307
12.12000, 140.6028
12.14000, 171.6759
12.16000, 205.2374
12.18000, 231.7874
12.20000, 251.1161
12.22000, 269.1602
12.24000, 278.7936
12.26000, 287.3454
12.28000, 288.0603
12.30000, 289.8428
12.32000, 275.4006
12.34000, 261.0720
12.36000, 242.2205
12.38000, 227.7178
12.40000, 214.1768
12.42000, 200.5687
12.44000, 183.7842
12.46000, 170.6879
12.48000, 160.4213
12.50000, 154.7889
12.52000, 150.9341
12.54000, 142.0958
12.56000, 126.2519
12.58000, 116.0777
12.60000, 113.7455
12.62000, 115.0742
12.64000, 116.7340
12.66000, 123.1427
12.68000, 128.4292
12.70000, 130.5686
12.72000, 132.3885
12.74000, 139.6998
12.76000, 147.0136
12.78000, 152.7668
12.80000, 158.4904
12.82000, 161.7236
12.84000, 160.0342
12.86000, 154.5113
12.88000, 151.3769
12.90000, 139.4384
12.92000, 135.7904
12.94000, 121.6015
12.96000, 107.0865
12.98000, 101.7413
13.00000, 101.1022
13.02000, 102.8209
13.04000, 107.5340
13.06000, 115.5187
13.08000, 126.2577
13.10000, 134.6805
13.12000, 138.1860
13.14000, 141.9008
13.16000, 140.0984
13.18000, 130.3699
13.20000, 111.1797
13.22000, 98.95686
13.24000, 84.87389
13.26000, 68.48792
13.28000, 53.25414
13.30000, 41.84840
13.32000, 32.98767
13.34000, 29.46593
13.36000, 26.45721
13.38000, 21.75250
13.40000, 19.29477
13.42000, 20.50400
13.44000, 33.90521
13.46000, 46.97841
13.48000, 56.68159
13.50000, 65.81068
13.52000, 70.90474
13.54000, 73.94875
13.56000, 81.00784
13.58000, 87.83967
13.60000, 88.56351
13.62000, 88.17432
13.64000, 85.98403
13.66000, 78.84464
13.68000, 71.64409
13.70000, 72.43450
13.72000, 71.89481
13.74000, 72.11898
13.76000, 74.93408
13.78000, 70.54998
13.80000, 70.32583
13.82000, 74.06953
13.84000, 72.76027
13.86000, 76.78880
13.88000, 78.69032
13.90000, 76.10779
13.92000, 70.59012
13.94000, 55.65539
13.96000, 43.07658
13.98000, 31.01963
14.00000, 12.18258
14.02000, 2.330575
14.04000, 8.144506
14.06000, 1.090375
14.08000, 6.001850
14.10000, 2.912042
14.12000, 1.947554
14.14000, 5.447516
14.16000, 8.591118
14.18000, 9.369977
14.20000, 10.46595
14.22000, 5.290080
14.24000, 0.3236340
14.26000, 4.986013
14.28000, 2.594969
14.30000, 7.824197
14.32000, 9.728329
14.34000, 30.94008
14.36000, 62.28287
14.38000, 110.3273
14.40000, 172.7019
14.42000, 256.7514
14.44000, 363.2148
14.46000, 484.3743
14.48000, 642.6390
14.50000, 830.4642
14.52000, 1047.780
14.54000, 1287.802
14.56000, 1523.307
14.58000, 1756.665
14.60000, 1960.037
14.62000, 2125.883
14.64000, 2238.612
14.66000, 2298.862
14.68000, 2325.774
14.70000, 2280.450
14.72000, 2177.455
14.74000, 2016.930
14.76000, 1803.308
14.78000, 1591.504
14.80000, 1366.904
14.82000, 1137.217
14.84000, 923.6691
14.86000, 727.8084
14.88000, 559.8428
14.90000, 422.1434
14.92000, 315.7445
14.94000, 235.9456
14.96000, 176.6518
14.98000, 128.1704
15.00000, 91.50913
15.02000, 63.43815
15.04000, 41.63131
15.06000, 30.06664
15.08000, 22.11116
15.10000, 16.06188
15.12000, 17.43774
15.14000, 24.15976
15.16000, 28.25293
15.18000, 29.88426
15.20000, 35.60979
15.22000, 45.12746
15.24000, 59.55430
15.26000, 78.17334
15.28000, 95.53249
15.30000, 113.9089
15.32000, 133.7484
15.34000, 150.7713
15.36000, 163.6183
15.38000, 169.8012
15.40000, 174.8187
15.42000, 179.6233
15.44000, 173.7291
15.46000, 171.2770
15.48000, 167.5976
15.50000, 161.1253
15.52000, 154.1542
15.54000, 139.2318
15.56000, 124.5614
15.58000, 109.4692
15.60000, 101.1122
15.62000, 97.04697
15.64000, 92.83408
15.66000, 99.29851
15.68000, 113.7493
15.70000, 134.1197
15.72000, 175.8077
15.74000, 230.7311
15.76000, 297.6020
15.78000, 372.5703
15.80000, 470.3073
15.82000, 583.2177
15.84000, 703.1923
15.86000, 829.7229
15.88000, 943.5967
15.90000, 1061.722
15.92000, 1155.437
15.94000, 1230.671
15.96000, 1277.768
15.98000, 1299.309
16.00000, 1303.151
16.02000, 1272.708
16.04000, 1222.675
16.06000, 1156.164
16.08000, 1065.702
16.10000, 968.1818
16.12000, 865.2214
16.14000, 759.6212
16.16000, 657.5103
16.18000, 559.2991
16.20000, 465.7569
16.22000, 380.4239
16.24000, 320.4244
16.26000, 265.2380
16.28000, 218.3072
16.30000, 179.9358
16.32000, 147.4266
16.34000, 123.9593
16.36000, 106.6448
16.38000, 98.78151
16.40000, 95.42295
16.42000, 100.7553
16.44000, 114.9741
16.46000, 135.3069
16.48000, 152.8109
16.50000, 166.0833
16.52000, 183.8775
16.54000, 206.0223
16.56000, 220.9793
16.58000, 238.8565
16.60000, 255.2340
16.62000, 260.3824
16.64000, 254.0783
16.66000, 244.4191
16.68000, 228.4575
16.70000, 211.0670
16.72000, 196.3943
16.74000, 172.7452
16.76000, 143.8559
16.78000, 122.6128
16.80000, 92.30904
16.82000, 57.00991
16.84000, 32.85894
16.86000, 9.961822
16.88000, 4.304601
16.90000, 8.566372
16.92000, 2.760077
16.94000, 3.999222
16.96000, 4.043826
16.98000, 9.621764
17.00000, 3.899833
17.02000, 2.527846
17.04000, 4.809622
17.06000, 8.559567
17.08000, 9.816190
17.10000, 10.25332
17.12000, 2.282103
17.14000, 6.916206
17.16000, 0.1280900
17.18000, 7.940297
17.20000, 7.729593
17.22000, 26.25226
17.24000, 52.33486
17.26000, 79.82529
17.28000, 108.2965
17.30000, 133.8774
17.32000, 158.1741
17.34000, 176.2345
17.36000, 197.4957
17.38000, 221.0074
17.40000, 235.4358
17.42000, 243.9599
17.44000, 245.5637
17.46000, 242.3579
17.48000, 234.3368
17.50000, 218.7374
17.52000, 196.7743
17.54000, 168.7619
17.56000, 131.4300
17.58000, 100.1985
17.60000, 72.72764
17.62000, 44.79419
17.64000, 23.52115
17.66000, 8.185572
17.68000, 1.366608
17.70000, 8.983766
17.72000, 1.516082
17.74000, 1.895891
17.76000, 2.027735
17.78000, 1.385221
17.80000, 3.3610001E-02
17.82000, 5.938751
17.84000, 8.364811
17.86000, 4.768419
17.88000, 24.82583
17.90000, 51.03739
17.92000, 74.96107
17.94000, 98.19984
17.96000, 118.8836
17.98000, 141.9393
18.00000, 162.9271
18.02000, 175.6748
18.04000, 195.4855
18.06000, 215.5610
18.08000, 225.5426
18.10000, 235.5610
18.12000, 243.8702
18.14000, 240.6326
18.16000, 237.6071
18.18000, 228.5910
18.20000, 217.5265
18.22000, 209.3394
18.24000, 194.9549
18.26000, 176.5782
18.28000, 154.3243
18.30000, 135.6203
18.32000, 119.4190
18.34000, 101.5704
18.36000, 85.96670
18.38000, 72.23772
18.40000, 59.70142
18.42000, 46.95290
18.44000, 35.45612
18.46000, 24.35298
18.48000, 18.60157
18.50000, 13.38982
18.52000, 5.932770
18.54000, 1.116199
18.56000, 1.637485
18.58000, 5.827046
18.60000, 10.05779
18.62000, 17.68115
18.64000, 30.96117
18.66000, 50.49659
18.68000, 72.63806
18.70000, 100.7068
18.72000, 122.9592
18.74000, 139.2827
18.76000, 146.5117
18.78000, 156.4099
18.80000, 166.9880
18.82000, 175.9447
18.84000, 175.4427
18.86000, 177.5842
18.88000, 175.8580
18.90000, 171.0140
18.92000, 159.0747
18.94000, 152.7128
18.96000, 154.1591
18.98000, 167.5176
19.00000, 179.2943
19.02000, 193.2377
19.04000, 208.1014
19.06000, 227.4126
19.08000, 244.3600
19.10000, 276.1442
19.12000, 307.8550
19.14000, 335.4616
19.16000, 368.0394
19.18000, 397.8387
19.20000, 409.1360
19.22000, 420.0658
19.24000, 434.8582
19.26000, 428.2675
19.28000, 409.2473
19.30000, 386.0081
19.32000, 352.3173
19.34000, 302.0453
19.36000, 257.0376
19.38000, 206.7271
19.40000, 163.2599
19.42000, 122.0209
19.44000, 91.77996
19.46000, 65.58480
19.48000, 44.74786
19.50000, 27.83749
19.52000, 12.94464
19.54000, 0.4665030
19.56000, 5.337314
19.58000, 1.918248
19.60000, 2.593556
19.62000, 13.82526
19.64000, 25.34096
19.66000, 37.03130
19.68000, 48.14120
19.70000, 61.97968
19.72000, 74.36772
19.74000, 85.32523
19.76000, 85.71753
19.78000, 84.15714
19.80000, 81.49741
19.82000, 75.13916
19.84000, 71.02496
19.86000, 66.93829
19.88000, 57.86757
19.90000, 52.77541
19.92000, 43.93971
19.94000, 35.14152
19.96000, 26.45883
19.98000, 16.19863
20.00000, 11.29091
20.02000, 10.78036
20.04000, 6.551948
20.06000, 19.31876
20.08000, 30.63507
20.10000, 44.03985
20.12000, 72.83604
20.14000, 109.2816
20.16000, 161.7440
20.18000, 208.7490
20.20000, 267.2999
20.22000, 332.2444
20.24000, 405.8720
20.26000, 486.5585
20.28000, 547.9442
20.30000, 615.7870
20.32000, 665.8387
20.34000, 706.1466
20.36000, 728.7206
20.38000, 731.8317
20.40000, 732.3549
20.42000, 708.9333
20.44000, 685.8075
20.46000, 662.2101
20.48000, 621.2986
20.50000, 575.8613
20.52000, 532.0734
20.54000, 488.5322
20.56000, 436.7594
20.58000, 379.6318
20.60000, 329.7439
20.62000, 282.8397
20.64000, 239.7346
20.66000, 200.7537
20.68000, 165.9875
20.70000, 133.3565
20.72000, 104.3253
20.74000, 78.14107
20.76000, 56.92829
20.78000, 39.36290
20.80000, 25.42929
20.82000, 16.18397
20.84000, 10.67859
20.86000, 8.757277
20.88000, 6.416937
20.90000, 2.248656
20.92000, 7.691551
20.94000, 1.520050
20.96000, 3.212854
20.98000, 1.488954
21.00000, 2.676707
21.02000, 6.199965
21.04000, 3.709905
21.06000, 1.572030
21.08000, 5.560229
21.10000, 9.877606
21.12000, 13.82843
21.14000, 18.24190
21.16000, 20.88660
21.18000, 26.37444
21.20000, 30.11433
21.22000, 34.15355
21.24000, 41.03500
21.26000, 47.40350
21.28000, 43.20108
21.30000, 32.26365
21.32000, 30.11427
21.34000, 29.74885
21.36000, 27.53141
21.38000, 24.95585
21.40000, 21.17528
21.42000, 20.81854
21.44000, 14.59063
21.46000, 12.43977
21.48000, 2.289745
21.50000, 4.413444
21.52000, 1.253153
21.54000, 2.116803
21.56000, 1.861046
21.58000, 6.673105
21.60000, 5.026764
21.62000, 0.7803400
21.64000, 4.420769
21.66000, 6.202171
21.68000, 5.659366
21.70000, 9.128684
21.72000, 9.416905
21.74000, 9.038804
21.76000, 9.757233
21.78000, 7.247274
21.80000, 4.694501
21.82000, 1.265765
21.84000, 6.234753
21.86000, 0.1830610
21.88000, 2.414440
21.90000, 4.258195
21.92000, 2.979629
21.94000, 2.303096
21.96000, 1.749214
21.98000, 5.976918
22.00000, 3.171302
22.02000, 6.613216
22.04000, 14.34874
22.06000, 17.96031
22.08000, 14.86102
22.10000, 16.79380
22.12000, 23.51774
22.14000, 25.21087
22.16000, 36.65820
22.18000, 52.02077
22.20000, 59.45964
22.22000, 71.39684
22.24000, 77.68037
22.26000, 88.76824
22.28000, 99.49352
22.30000, 107.1883
22.32000, 117.6426
22.34000, 120.8993
22.36000, 137.1827
22.38000, 143.9542
22.40000, 156.0636
22.42000, 170.7466
22.44000, 182.6239
22.46000, 187.4948
22.48000, 192.8020
22.50000, 193.9008
22.52000, 208.3728
22.54000, 225.5678
22.56000, 234.2057
22.58000, 233.4222
22.60000, 234.1071
22.62000, 230.6442
22.64000, 219.5424
22.66000, 210.8729
22.68000, 198.7523
22.70000, 178.2950
22.72000, 156.1867
22.74000, 138.5986
22.76000, 114.3497
22.78000, 92.00696
22.80000, 68.29446
22.82000, 46.45928
22.84000, 28.17741
22.86000, 11.36788
22.88000, 2.280690
22.90000, 3.662022
22.92000, 6.660850
22.94000, 4.727638
22.96000, 0.9791920
22.98000, 2.565168
23.00000, 5.075000
23.02000, 11.75261
23.04000, 33.50726
23.06000, 49.51407
23.08000, 70.69260
23.10000, 88.57279
23.12000, 103.7615
23.14000, 121.4720
23.16000, 134.6922
23.18000, 144.8150
23.20000, 152.7448
23.22000, 155.2507
23.24000, 148.0887
23.26000, 140.7954
23.28000, 123.7596
23.30000, 110.4719
23.32000, 92.82672
23.34000, 77.00199
23.36000, 60.90282
23.38000, 44.99475
23.40000, 30.92869
23.42000, 16.23599
23.44000, 6.185643
23.46000, 1.014044
23.48000, 5.834670
23.50000, 2.873253
23.52000, 4.906131
23.54000, 3.746080
23.56000, 2.105365
23.58000, 1.368855
23.60000, 6.555372
23.62000, 0.8954450
23.64000, 12.89677
23.66000, 22.72798
23.68000, 36.25903
23.70000, 51.28102
23.72000, 65.00887
23.74000, 77.21963
23.76000, 93.23942
23.78000, 122.8022
23.80000, 148.0670
23.82000, 185.4868
23.84000, 218.9209
23.86000, 238.6509
23.88000, 258.4690
23.90000, 276.2496
23.92000, 285.8762
23.94000, 282.0253
23.96000, 265.8887
23.98000, 243.8581
24.00000, 230.4189
24.02000, 224.3727
24.04000, 212.7887
24.06000, 196.2604
24.08000, 182.6440
24.10000, 168.3470
24.12000, 156.5870
24.14000, 147.3077
24.16000, 138.3863
24.18000, 134.8536
24.20000, 136.1663
24.22000, 145.0545
24.24000, 144.3528
24.26000, 141.3568
24.28000, 142.3410
24.30000, 137.2523
24.32000, 135.9999
24.34000, 125.2486
24.36000, 113.7161
24.38000, 119.9845
24.40000, 132.4605
24.42000, 146.6494
24.44000, 169.9867
24.46000, 200.5597
24.48000, 236.9230
24.50000, 276.0349
24.52000, 305.8563
24.54000, 340.9792
24.56000, 372.4127
24.58000, 409.4398
24.60000, 441.6693
24.62000, 459.8679
24.64000, 472.4698
24.66000, 471.6646
24.68000, 467.3559
24.70000, 470.5139
24.72000, 460.1599
24.74000, 437.3475
24.76000, 406.7438
24.78000, 376.9074
24.80000, 349.7255
24.82000, 332.9185
24.84000, 310.4390
24.86000, 301.2126
24.88000, 289.6358
24.90000, 285.7966
24.92000, 278.6371
24.94000, 263.1403
24.96000, 252.1542
24.98000, 250.3145
25.00000, 259.3174
25.02000, 257.0471
25.04000, 248.6703
25.06000, 237.8071
25.08000, 230.0193
25.10000, 209.5652
25.12000, 200.8096
25.14000, 202.3467
25.16000, 189.9443
25.18000, 170.4517
25.20000, 147.5006
25.22000, 132.9342
25.24000, 123.3843
25.26000, 111.2941
25.28000, 84.00048
25.30000, 60.55421
25.32000, 36.59588
25.34000, 16.69421
25.36000, 2.325140
25.38000, 10.37192
25.40000, 9.459440
25.42000, 8.173808
25.44000, 3.553510
25.46000, 3.268220
25.48000, 2.091776
25.50000, 5.701210
25.52000, 7.434487
25.54000, 13.07767
25.56000, 12.63525
25.58000, 18.02493
25.60000, 13.24779
25.62000, 14.73856
25.64000, 15.44914
25.66000, 11.34309
25.68000, 5.945580
25.70000, 7.506124
25.72000, 15.08085
25.74000, 23.80403
25.76000, 25.56397
25.78000, 18.41539
25.80000, 25.06976
25.82000, 32.29071
25.84000, 34.62515
25.86000, 42.50783
25.88000, 52.17696
25.90000, 54.91190
25.92000, 61.33358
25.94000, 73.93163
25.96000, 86.40862
25.98000, 99.01076
26.00000, 111.5274
26.02000, 125.1722
26.04000, 136.6046
26.06000, 139.2763
26.08000, 139.9585
26.10000, 146.1942
26.12000, 152.7723
26.14000, 167.3069
26.16000, 188.4349
26.18000, 197.3043
26.20000, 220.2480
26.22000, 247.9192
26.24000, 266.3656
26.26000, 282.7865
26.28000, 297.9548
26.30000, 304.2730
26.32000, 304.5297
26.34000, 300.8058
26.36000, 297.3985
26.38000, 297.0217
26.40000, 294.5861
26.42000, 285.8723
26.44000, 284.6024
26.46000, 271.3810
26.48000, 256.1027
26.50000, 245.4505
26.52000, 244.7154
26.54000, 256.9546
26.56000, 265.0715
26.58000, 270.5115
26.60000, 280.9933
26.62000, 286.6315
26.64000, 292.0903
26.66000, 298.3095
26.68000, 301.9137
26.70000, 305.5172
26.72000, 309.3094
26.74000, 309.3445
26.76000, 313.6104
26.78000, 315.3707
26.80000, 319.8361
26.82000, 314.0541
26.84000, 301.5248
26.86000, 291.7520
26.88000, 271.5728
26.90000, 239.0588
26.92000, 210.4554
26.94000, 173.1300
26.96000, 150.0522
26.98000, 122.7864
27.00000, 104.8730
27.02000, 82.65646
27.04000, 61.22387
27.06000, 43.98151
27.08000, 31.30633
27.10000, 15.35227
27.12000, 6.978370
27.14000, 5.779430
27.16000, 8.317093
27.18000, 6.779133
27.20000, 2.532918
27.22000, 5.995394
27.24000, 6.990193
27.26000, 16.40715
27.28000, 20.66118
27.30000, 35.92454
27.32000, 34.80330
27.34000, 42.54716
27.36000, 56.25278
27.38000, 61.16105
27.40000, 56.97401
27.42000, 62.03564
27.44000, 68.95585
27.46000, 73.14660
27.48000, 85.46987
27.50000, 97.59562
27.52000, 96.75696
27.54000, 102.8966
27.56000, 119.8847
27.58000, 133.7903
27.60000, 131.1130
27.62000, 133.1010
27.64000, 129.9325
27.66000, 125.7422
27.68000, 121.4079
27.70000, 115.8821
27.72000, 114.2528
27.74000, 100.5262
27.76000, 92.16216
27.78000, 90.05610
27.80000, 89.35986
27.82000, 79.14429
27.84000, 56.16119
27.86000, 40.72287
27.88000, 39.03349
27.90000, 32.41510
27.92000, 21.18628
27.94000, 15.69949
27.96000, 3.839661
27.98000, 3.934569
28.00000, 2.065708
28.02000, 3.499708
28.04000, 5.775851
28.06000, 9.4705001E-02
28.08000, 1.103819
28.10000, 5.220973
28.12000, 2.359581
28.14000, 1.896704
28.16000, 4.200708
28.18000, 5.291217
28.20000, 3.879897
28.22000, 19.34303
28.24000, 35.82422
28.26000, 53.32947
28.28000, 56.60402
28.30000, 64.91636
28.32000, 74.26402
28.34000, 80.43355
28.36000, 76.40356
28.38000, 78.99473
28.40000, 89.62167
28.42000, 99.32555
28.44000, 101.3501
28.46000, 105.8594
28.48000, 101.3724
28.50000, 102.2920
28.52000, 103.5774
28.54000, 98.00925
28.56000, 94.98171
28.58000, 87.01172
28.60000, 80.48117
28.62000, 71.71577
28.64000, 62.48551
28.66000, 51.81132
28.68000, 38.12148
28.70000, 27.97896
28.72000, 17.46677
28.74000, 11.86278
28.76000, 15.81595
28.78000, 16.14925
28.80000, 5.326602
28.82000, 1.535069
28.84000, 1.793567
28.86000, 3.394406
28.88000, 1.964888
28.90000, 2.649951
28.92000, 1.558912
28.94000, 5.553063
28.96000, 6.2217001E-02
28.98000, 0.5454690
29.00000, 1.726856
29.02000, 3.611871
29.04000, 8.918658
29.06000, 6.870955
29.08000, 6.405743
29.10000, 6.819793
29.12000, 2.810672
29.14000, 0.2340210
29.16000, 2.193428
29.18000, 7.558935
29.20000, 16.32009
29.22000, 23.96661
29.24000, 34.34474
29.26000, 53.83636
29.28000, 69.25867
29.30000, 73.18359
29.32000, 72.43238
29.34000, 69.57903
29.36000, 78.66633
29.38000, 97.46793
29.40000, 122.1456
29.42000, 145.9023
29.44000, 161.1219
29.46000, 166.6800
29.48000, 181.1047
29.50000, 198.2548
29.52000, 219.0425
29.54000, 234.4306
29.56000, 242.4876
29.58000, 238.6346
29.60000, 247.7219
29.62000, 255.7704
29.64000, 252.4776
29.66000, 257.6268
29.68000, 267.5332
29.70000, 262.3889
29.72000, 262.4828
29.74000, 270.4720
29.76000, 265.5470
29.78000, 258.0832
29.80000, 245.5391
29.82000, 254.6071
29.84000, 263.9046
29.86000, 260.7163
29.88000, 255.5526
29.90000, 239.9302
29.92000, 223.0960
29.94000, 200.4943
29.96000, 185.6124
29.98000, 172.1399
30.00000, 156.5356
30.02000, 142.4197
30.04000, 134.0503
30.06000, 127.1139
30.08000, 109.9924
30.10000, 94.24172
30.12000, 89.58611
30.14000, 75.42316
30.16000, 63.94476
30.18000, 60.79113
30.20000, 49.69714
30.22000, 36.53318
30.24000, 34.31408
30.26000, 22.07203
30.28000, 21.86211
30.30000, 10.17729
30.32000, 9.040415
30.34000, 18.76941
30.36000, 18.09246
30.38000, 14.40271
30.40000, 12.03792
30.42000, 4.612350
30.44000, 2.338012
30.46000, 1.266502
30.48000, 1.759320
30.50000, 3.457816
30.52000, 2.381633
30.54000, 3.626260
30.56000, 0.7266140
30.58000, 7.785329
30.60000, 22.03638
30.62000, 36.30103
30.64000, 45.75333
30.66000, 42.29726
30.68000, 27.45579
30.70000, 26.16896
30.72000, 37.34178
30.74000, 47.94625
30.76000, 55.41840
30.78000, 51.96124
30.80000, 63.95681
30.82000, 70.27617
30.84000, 79.43642
30.86000, 85.19888
30.88000, 90.59533
30.90000, 90.83057
30.92000, 88.36533
30.94000, 88.64754
30.96000, 90.78818
30.98000, 89.87524
31.00000, 101.3857
31.02000, 103.2326
31.04000, 96.27596
31.06000, 91.91463
31.08000, 85.07469
31.10000, 82.76913
31.12000, 79.67824
31.14000, 82.79594
31.16000, 90.05738
31.18000, 107.9486
31.20000, 114.3000
31.22000, 122.8842
31.24000, 124.2844
31.26000, 113.1094
31.28000, 110.9781
31.30000, 104.0331
31.32000, 84.32710
31.34000, 66.49085
31.36000, 62.79605
31.38000, 62.74136
31.40000, 68.83723
31.42000, 63.20196
31.44000, 54.53228
31.46000, 47.60561
31.48000, 35.88053
31.50000, 20.58158
31.52000, 6.211510
31.54000, 5.350198
31.56000, 7.277043
31.58000, 2.554157
31.60000, 0.4593430
31.62000, 1.969536
31.64000, 2.264836
31.66000, 2.927652
31.68000, 2.415784
31.70000, 0.7151880
31.72000, 0.1829830
31.74000, 1.043176
31.76000, 3.758845
31.78000, 0.8554200
31.80000, 2.239083
31.82000, 0.5942020
31.84000, 8.809430
31.86000, 14.25361
31.88000, 18.16177
31.90000, 16.01995
31.92000, 19.03635
31.94000, 16.10872
31.96000, 19.04658
31.98000, 5.274689
32.00000, 2.395586
32.02000, 3.118914
32.04000, 3.205191
32.06000, 1.973065
32.08000, 1.728332
32.10000, 1.009911
32.12000, 10.95827
32.14000, 4.937911
32.16000, 1.321057
32.18000, 3.819761
32.20000, 4.061045
32.22000, 7.048898
32.24000, 23.33041
32.26000, 26.86653
32.28000, 38.99637
32.30000, 52.44489
32.32000, 60.47244
32.34000, 78.07883
32.36000, 104.6129
32.38000, 123.7284
32.40000, 125.6194
32.42000, 118.0549
32.44000, 126.7022
32.46000, 152.3745
32.48000, 171.6502
32.50000, 179.3400
32.52000, 182.6563
32.54000, 175.5369
32.56000, 178.3590
32.58000, 192.5084
32.60000, 207.6163
32.62000, 219.2479
32.64000, 214.4809
32.66000, 211.7175
32.68000, 222.5949
32.70000, 227.9651
32.72000, 220.5681
32.74000, 208.9209
32.76000, 208.2113
32.78000, 206.7763
32.80000, 212.4333
32.82000, 209.7036
32.84000, 194.4395
32.86000, 183.7552
32.88000, 178.4376
32.90000, 163.6576
32.92000, 148.5498
32.94000, 146.9445
32.96000, 148.7799
32.98000, 153.4052
33.00000, 147.0589
33.02000, 134.3087
33.04000, 120.8273
33.06000, 110.8953
33.08000, 106.8856
33.10000, 93.49802
33.12000, 86.59701
33.14000, 94.94124
33.16000, 93.38772
33.18000, 94.65187
33.20000, 104.8266
33.22000, 120.6359
33.24000, 122.5556
33.26000, 122.5004
33.28000, 109.7088
33.30000, 91.99474
33.32000, 82.90339
33.34000, 79.21793
33.36000, 60.64023
33.38000, 50.33342
33.40000, 65.90941
33.42000, 76.23125
33.44000, 75.01299
33.46000, 73.18937
33.48000, 79.27878
33.50000, 88.22942
33.52000, 100.6059
33.54000, 103.6385
33.56000, 111.2097
33.58000, 104.3409
33.60000, 100.5343
33.62000, 80.34996
33.64000, 81.55457
33.66000, 75.16564
33.68000, 63.42821
33.70000, 55.67334
33.72000, 49.93567
33.74000, 43.93076
33.76000, 41.37383
33.78000, 38.62345
33.80000, 36.41874
33.82000, 36.05257
33.84000, 29.88690
33.86000, 20.21919
33.88000, 23.12416
33.90000, 24.36765
33.92000, 19.55090
33.94000, 6.912051
33.96000, 1.287448
33.98000, 0.7782610
34.00000, 2.361201
34.02000, 3.122601
34.04000, 3.090979
34.06000, 0.6793070
34.08000, 1.3149000E-02
34.10000, 4.445417
34.12000, 11.19787
34.14000, 12.32003
34.16000, 8.564854
34.18000, 8.479486
34.20000, 8.001272
34.22000, 11.15012
34.24000, 7.084671
34.26000, 4.363994
34.28000, 6.659639
34.30000, 3.854812
34.32000, 11.14175
34.34000, 16.68770
34.36000, 12.44810
34.38000, 8.597934
34.40000, 1.845968
34.42000, 11.25492
34.44000, 27.16124
34.46000, 33.99837
34.48000, 35.14273
34.50000, 39.15704
34.52000, 44.56942
34.54000, 46.11332
34.56000, 49.35223
34.58000, 43.18938
34.60000, 49.49185
34.62000, 50.94108
34.64000, 42.69601
34.66000, 30.23125
34.68000, 17.23967
34.70000, 0.2598770
34.72000, 1.198307
34.74000, 1.4238000E-02
34.76000, 5.564538
34.78000, 12.03709
34.80000, 11.28733
34.82000, 3.226161
34.84000, 0.7328350
34.86000, 1.342599
34.88000, 1.347462
34.90000, 1.907870
34.92000, 3.767766
34.94000, 8.578257
34.96000, 14.25632
34.98000, 13.05520
35.00000, 23.62959
35.02000, 26.44564
35.04000, 20.56752
35.06000, 20.25076
35.08000, 14.96992
35.10000, 14.44276
35.12000, 14.17146
35.14000, 12.65624
35.16000, 16.38258
35.18000, 13.69638
35.20000, 8.928733
35.22000, 11.96370
35.24000, 10.77538
35.26000, 6.792009
35.28000, 14.83810
35.30000, 26.32465
35.32000, 31.16479
35.34000, 32.71406
35.36000, 31.79616
35.38000, 38.29190
35.40000, 36.57401
35.42000, 26.15411
35.44000, 22.39274
35.46000, 28.55583
35.48000, 27.84197
35.50000, 29.87036
35.52000, 26.75962
35.54000, 30.44172
35.56000, 17.26911
35.58000, 4.932182
35.60000, 0.2112590
35.62000, 0.3228020
35.64000, 4.139766
35.66000, 0.0000000E+00
##END=



