##NAMES=Picropharmacolite
##RRUFFID=R050560
##IDEAL CHEMISTRY=Ca_4_Mg(As^5+^O_3_OH)_2_(As^5+^O_4_)_2_&#183;11H_2_O
##LOCALITY=Riechelsdorf, Saxony, Germany
##OWNER=RRUFF
##SOURCE=University of Arizona Mineral Museum
##DESCRIPTION=Spray of white fibrous crystals
##DIFFRACTION SAMPLE DESCRIPTION=Powder, using Mo radiation
##STATUS=The identification of this mineral has been confirmed only by chemical analysis
##URL=rruff.info/R050560
##MEASURED CHEMISTRY=Ca_4.00_(Mg_0.75_Al_0.16_[box]_0.09_)_Σ=1_((As_0.99_S_0.01_)_Σ=1_O_3_OH)_2_(As_1.00_O_4_)_2_·11H_2_O
6.030000, 0.0000000E+00
6.060000, 4.303421
6.090000, 0.8620910
6.120000, 1.071808
6.150000, 2.318497
6.180000, 6.119110
6.210000, 9.981659
6.240000, 9.982605
6.270000, 6.141479
6.300000, 2.412323
6.330000, 0.6581880
6.360000, 1.911621
6.390000, 6.296829
6.420000, 7.773254
6.450000, 8.888321
6.480000, 10.29317
6.510000, 10.92685
6.540000, 11.25565
6.570000, 13.10544
6.600000, 14.63731
6.630000, 14.82225
6.660000, 16.54126
6.690000, 14.66745
6.720000, 16.31734
6.750000, 14.52083
6.780000, 12.50543
6.810000, 14.24814
6.840000, 12.50449
6.870000, 10.15019
6.900000, 12.19847
6.930000, 16.41559
6.960000, 26.03409
6.990000, 32.49017
7.020000, 33.65408
7.050000, 34.63187
7.080000, 37.91510
7.110000, 45.62491
7.140000, 52.11664
7.170000, 60.56802
7.200000, 69.52289
7.230000, 80.95624
7.260000, 85.61517
7.290000, 88.97339
7.320000, 101.0232
7.350000, 118.1977
7.380000, 131.9036
7.410000, 147.3914
7.440000, 158.9774
7.470000, 160.2202
7.500000, 156.0612
7.530000, 156.9598
7.560000, 168.4808
7.590000, 177.7405
7.620000, 181.5776
7.650000, 181.9286
7.680000, 180.5393
7.710000, 175.0909
7.740000, 167.2590
7.770000, 159.3167
7.800000, 146.0533
7.830000, 138.1504
7.860000, 127.7760
7.890000, 118.2374
7.920000, 109.7621
7.950000, 100.7959
7.980000, 97.43115
8.010000, 93.96710
8.040000, 91.69388
8.070000, 96.34344
8.100000, 105.0378
8.130000, 113.4407
8.160000, 121.9230
8.190000, 130.6822
8.220000, 138.4246
8.250000, 144.7809
8.280000, 145.2531
8.310000, 145.7367
8.340000, 142.5229
8.370000, 139.0627
8.400000, 133.9164
8.430000, 126.9847
8.460000, 110.9718
8.490000, 97.12656
8.520000, 88.84299
8.550000, 79.99460
8.580000, 74.21994
8.610000, 77.33826
8.640000, 79.24466
8.670000, 74.37094
8.700000, 67.25436
8.730000, 59.13489
8.760000, 54.24634
8.790000, 53.43857
8.820000, 49.45761
8.850000, 40.58826
8.880000, 32.83643
8.910000, 29.60107
8.940000, 24.31104
8.970000, 21.40723
9.000000, 25.98657
9.030000, 31.19196
9.060000, 36.46924
9.090000, 43.68436
9.120000, 50.52115
9.150000, 54.58658
9.180000, 61.32840
9.210000, 66.42664
9.240000, 67.46811
9.270000, 74.32162
9.300000, 78.36630
9.330000, 81.00378
9.360000, 85.47516
9.390000, 89.24017
9.420000, 88.91681
9.450000, 88.03400
9.480000, 83.32062
9.510000, 75.86664
9.540000, 71.62988
9.570000, 69.34518
9.600000, 64.10657
9.630000, 61.40634
9.660000, 59.51566
9.690000, 52.41782
9.720000, 47.41971
9.750000, 42.63293
9.780000, 32.88229
9.810000, 22.23325
9.840000, 19.00571
9.870000, 19.25491
9.900000, 18.70490
9.930000, 18.23123
9.960000, 23.33142
9.990000, 20.79800
10.02000, 24.01886
10.05000, 29.76807
10.08000, 41.53909
10.11000, 54.60205
10.14000, 66.17654
10.17000, 75.79007
10.20000, 81.49982
10.23000, 86.36526
10.26000, 87.19727
10.29000, 88.81039
10.32000, 96.95877
10.35000, 96.66553
10.38000, 91.75214
10.41000, 81.34854
10.44000, 73.86890
10.47000, 65.87686
10.50000, 64.16504
10.53000, 62.02023
10.56000, 60.23062
10.59000, 64.30005
10.62000, 68.38287
10.65000, 69.87637
10.68000, 67.33655
10.71000, 63.41235
10.74000, 57.94016
10.77000, 55.98566
10.80000, 55.39368
10.83000, 52.11301
10.86000, 44.06653
10.89000, 35.42719
10.92000, 28.04163
10.95000, 21.68497
10.98000, 12.87589
11.01000, 3.251404
11.04000, 0.8296810
11.07000, 2.652557
11.10000, 3.221375
11.13000, 2.926331
11.16000, 1.563446
11.19000, 1.995789
11.22000, 0.2464290
11.25000, 3.729218
11.28000, 8.560425
11.31000, 16.08002
11.34000, 25.99884
11.37000, 36.61676
11.40000, 43.42270
11.43000, 42.99463
11.46000, 40.27048
11.49000, 40.87433
11.52000, 42.24417
11.55000, 42.78394
11.58000, 40.77762
11.61000, 38.08017
11.64000, 37.22461
11.67000, 37.16086
11.70000, 43.03879
11.73000, 47.54352
11.76000, 51.05289
11.79000, 55.14392
11.82000, 63.34344
11.85000, 71.51450
11.88000, 80.00702
11.91000, 88.90982
11.94000, 94.58502
11.97000, 99.29446
12.00000, 102.4470
12.03000, 106.7157
12.06000, 110.8614
12.09000, 112.5632
12.12000, 108.0067
12.15000, 103.8701
12.18000, 100.7949
12.21000, 100.5361
12.24000, 102.2722
12.27000, 102.0947
12.30000, 103.3558
12.33000, 108.6614
12.36000, 115.0684
12.39000, 125.9277
12.42000, 141.6393
12.45000, 159.2121
12.48000, 178.0080
12.51000, 192.8902
12.54000, 205.1578
12.57000, 213.3896
12.60000, 222.1774
12.63000, 227.2222
12.66000, 231.5460
12.69000, 235.6249
12.72000, 246.5089
12.75000, 253.0009
12.78000, 250.4447
12.81000, 238.2419
12.84000, 221.5559
12.87000, 207.9668
12.90000, 194.6711
12.93000, 180.6297
12.96000, 170.5278
12.99000, 163.8184
13.02000, 161.7242
13.05000, 164.3869
13.08000, 172.2616
13.11000, 196.5732
13.14000, 234.8488
13.17000, 268.5939
13.20000, 305.3309
13.23000, 350.5567
13.26000, 389.9313
13.29000, 430.3449
13.32000, 462.7970
13.35000, 481.2526
13.38000, 484.0214
13.41000, 470.7781
13.44000, 450.8350
13.47000, 421.1938
13.50000, 387.0652
13.53000, 346.9807
13.56000, 300.5170
13.59000, 258.8970
13.62000, 220.1711
13.65000, 194.1964
13.68000, 182.5435
13.71000, 175.2977
13.74000, 176.7778
13.77000, 181.0450
13.80000, 179.1561
13.83000, 183.3934
13.86000, 189.9860
13.89000, 196.3093
13.92000, 196.7264
13.95000, 199.7440
13.98000, 204.0661
14.01000, 204.0605
14.04000, 205.3516
14.07000, 203.9594
14.10000, 203.6169
14.13000, 201.2429
14.16000, 197.5589
14.19000, 195.1347
14.22000, 191.2549
14.25000, 188.0451
14.28000, 185.4444
14.31000, 180.1813
14.34000, 178.6251
14.37000, 180.4493
14.40000, 180.4139
14.43000, 185.2417
14.46000, 187.8707
14.49000, 189.4071
14.52000, 195.0094
14.55000, 202.3969
14.58000, 209.4222
14.61000, 215.5296
14.64000, 216.9637
14.67000, 216.2792
14.70000, 215.7708
14.73000, 210.3355
14.76000, 204.8937
14.79000, 197.7047
14.82000, 189.2560
14.85000, 181.3525
14.88000, 176.2372
14.91000, 167.8660
14.94000, 166.7260
14.97000, 163.2974
15.00000, 159.3513
15.03000, 154.3763
15.06000, 144.6418
15.09000, 130.2194
15.12000, 116.9843
15.15000, 106.8353
15.18000, 96.04434
15.21000, 86.87152
15.24000, 79.01376
15.27000, 70.42691
15.30000, 60.13101
15.33000, 49.05701
15.36000, 40.92587
15.39000, 40.53448
15.42000, 43.77493
15.45000, 42.08908
15.48000, 40.45990
15.51000, 39.08838
15.54000, 37.34445
15.57000, 38.01303
15.60000, 36.29919
15.63000, 40.94580
15.66000, 42.35281
15.69000, 42.19330
15.72000, 46.49707
15.75000, 47.84317
15.78000, 47.98856
15.81000, 47.31918
15.84000, 47.21100
15.87000, 45.52097
15.90000, 44.73309
15.93000, 46.50928
15.96000, 49.26953
15.99000, 54.70279
16.02000, 60.27505
16.05000, 61.13223
16.08000, 58.09805
16.11000, 54.46371
16.14000, 52.28592
16.17000, 51.80090
16.20000, 52.83151
16.23000, 56.60779
16.26000, 57.16705
16.29000, 53.01999
16.32000, 48.35007
16.35000, 44.57321
16.38000, 42.53195
16.41000, 43.19083
16.44000, 40.93997
16.47000, 42.80911
16.50000, 41.18466
16.53000, 45.88788
16.56000, 47.52530
16.59000, 48.28229
16.62000, 50.11462
16.65000, 52.59311
16.68000, 52.24979
16.71000, 48.65253
16.74000, 45.77737
16.77000, 40.27225
16.80000, 34.10513
16.83000, 29.02298
16.86000, 27.11380
16.89000, 26.93750
16.92000, 22.04108
16.95000, 16.88641
16.98000, 11.18552
17.01000, 7.783386
17.04000, 1.466980
17.07000, 1.298950
17.10000, 7.518311
17.13000, 5.927429
17.16000, 6.101624
17.19000, 5.243073
17.22000, 10.60550
17.25000, 17.04361
17.28000, 18.12167
17.31000, 17.79935
17.34000, 17.01352
17.37000, 16.12796
17.40000, 13.62140
17.43000, 12.77457
17.46000, 11.17722
17.49000, 8.441650
17.52000, 8.184631
17.55000, 8.580078
17.58000, 6.571228
17.61000, 6.063263
17.64000, 5.518951
17.67000, 5.842072
17.70000, 7.269928
17.73000, 7.622253
17.76000, 5.568268
17.79000, 3.463043
17.82000, 6.3385002E-02
17.85000, 4.020691
17.88000, 7.300598
17.91000, 11.64395
17.94000, 17.19217
17.97000, 22.23923
18.00000, 22.50504
18.03000, 19.28772
18.06000, 14.74118
18.09000, 11.70346
18.12000, 10.84546
18.15000, 10.67419
18.18000, 13.07855
18.21000, 12.04858
18.24000, 13.20740
18.27000, 13.67596
18.30000, 16.15326
18.33000, 16.07748
18.36000, 22.69827
18.39000, 28.18777
18.42000, 32.31995
18.45000, 35.92871
18.48000, 38.85703
18.51000, 39.18298
18.54000, 36.00851
18.57000, 31.42953
18.60000, 29.49417
18.63000, 33.39230
18.66000, 37.46494
18.69000, 42.65613
18.72000, 42.80716
18.75000, 46.38797
18.78000, 41.84558
18.81000, 38.82870
18.84000, 35.47925
18.87000, 32.16928
18.90000, 30.34973
18.93000, 28.22464
18.96000, 27.40799
18.99000, 25.18671
19.02000, 26.44989
19.05000, 24.85144
19.08000, 24.77435
19.11000, 28.96967
19.14000, 33.44940
19.17000, 33.58752
19.20000, 33.20395
19.23000, 33.37579
19.26000, 36.44894
19.29000, 38.44446
19.32000, 37.75934
19.35000, 36.28552
19.38000, 34.43207
19.41000, 34.54990
19.44000, 35.68610
19.47000, 37.39862
19.50000, 36.25742
19.53000, 33.00259
19.56000, 31.05203
19.59000, 26.65787
19.62000, 19.05194
19.65000, 13.05130
19.68000, 11.91760
19.71000, 12.83057
19.74000, 14.65137
19.77000, 14.72220
19.80000, 13.11911
19.83000, 10.32785
19.86000, 11.26892
19.89000, 11.94855
19.92000, 10.71277
19.95000, 7.211456
19.98000, 4.346710
20.01000, 2.376678
20.04000, 5.302643
20.07000, 7.240692
20.10000, 9.724274
20.13000, 12.23709
20.16000, 16.66946
20.19000, 23.18256
20.22000, 27.44339
20.25000, 33.49243
20.28000, 39.65527
20.31000, 45.08206
20.34000, 51.34302
20.37000, 56.93835
20.40000, 60.71179
20.43000, 63.15173
20.46000, 64.98126
20.49000, 68.86810
20.52000, 72.08725
20.55000, 73.13971
20.58000, 71.65454
20.61000, 71.10748
20.64000, 66.84586
20.67000, 64.74756
20.70000, 58.10614
20.73000, 51.62689
20.76000, 47.56100
20.79000, 42.89066
20.82000, 38.06427
20.85000, 33.91562
20.88000, 29.33405
20.91000, 26.34308
20.94000, 22.59024
20.97000, 20.20184
21.00000, 21.66214
21.03000, 22.99533
21.06000, 21.48975
21.09000, 19.21234
21.12000, 18.27927
21.15000, 15.62952
21.18000, 15.95428
21.21000, 16.32382
21.24000, 17.73459
21.27000, 20.66400
21.30000, 23.87256
21.33000, 28.21555
21.36000, 33.46625
21.39000, 38.09280
21.42000, 42.45883
21.45000, 46.93295
21.48000, 49.49976
21.51000, 55.28583
21.54000, 60.14957
21.57000, 61.81912
21.60000, 64.01648
21.63000, 65.11658
21.66000, 61.75549
21.69000, 55.02725
21.72000, 49.27979
21.75000, 44.41138
21.78000, 39.30261
21.81000, 35.87576
21.84000, 33.56277
21.87000, 34.34073
21.90000, 38.45163
21.93000, 43.46350
21.96000, 48.92532
21.99000, 54.36710
22.02000, 59.17886
22.05000, 59.26865
22.08000, 60.08539
22.11000, 63.87320
22.14000, 65.55194
22.17000, 67.33179
22.20000, 72.74765
22.23000, 77.81458
22.26000, 74.64957
22.29000, 71.53665
22.32000, 71.95078
22.35000, 72.29102
22.38000, 69.15939
22.41000, 59.69086
22.44000, 48.81149
22.47000, 41.81223
22.50000, 36.15811
22.53000, 27.53519
22.56000, 22.08643
22.59000, 20.00388
22.62000, 16.62848
22.65000, 14.88132
22.68000, 14.01834
22.71000, 12.26862
22.74000, 12.35342
22.77000, 13.61252
22.80000, 18.77484
22.83000, 25.39957
22.86000, 29.87952
22.89000, 32.82779
22.92000, 32.22247
22.95000, 34.32654
22.98000, 36.16992
23.01000, 40.51773
23.04000, 41.75992
23.07000, 40.30591
23.10000, 39.38632
23.13000, 38.28619
23.16000, 35.76352
23.19000, 36.24524
23.22000, 39.52936
23.25000, 41.90515
23.28000, 47.22644
23.31000, 49.04947
23.34000, 51.47601
23.37000, 52.70810
23.40000, 52.80579
23.43000, 54.46872
23.46000, 56.11609
23.49000, 59.97742
23.52000, 63.99890
23.55000, 62.63284
23.58000, 60.83978
23.61000, 58.05444
23.64000, 52.77835
23.67000, 46.38852
23.70000, 43.59415
23.73000, 42.49063
23.76000, 44.61224
23.79000, 46.94464
23.82000, 49.40201
23.85000, 51.72217
23.88000, 51.57104
23.91000, 49.68454
23.94000, 48.45978
23.97000, 48.62003
24.00000, 47.85904
24.03000, 48.01007
24.06000, 48.63791
24.09000, 48.87122
24.12000, 49.57333
24.15000, 52.05411
24.18000, 51.52264
24.21000, 51.99496
24.24000, 53.96759
24.27000, 58.37268
24.30000, 61.08521
24.33000, 64.97635
24.36000, 65.62628
24.39000, 66.61545
24.42000, 66.93600
24.45000, 65.70380
24.48000, 65.16772
24.51000, 64.28293
24.54000, 62.37021
24.57000, 60.49347
24.60000, 60.78107
24.63000, 60.85486
24.66000, 61.38956
24.69000, 60.80243
24.72000, 57.05072
24.75000, 56.41489
24.78000, 47.33817
24.81000, 39.71616
24.84000, 33.31378
24.87000, 28.41821
24.90000, 28.07373
24.93000, 27.21851
24.96000, 27.18408
24.99000, 26.70694
25.02000, 19.37424
25.05000, 15.22208
25.08000, 14.96408
25.11000, 13.80295
25.14000, 13.96387
25.17000, 13.78494
25.20000, 11.11182
25.23000, 11.29300
25.26000, 10.55161
25.29000, 9.389008
25.32000, 9.980164
25.35000, 8.542023
25.38000, 8.104401
25.41000, 9.867096
25.44000, 9.352020
25.47000, 10.06073
25.50000, 12.78140
25.53000, 15.81415
25.56000, 18.73779
25.59000, 20.31445
25.62000, 20.83105
25.65000, 20.03259
25.68000, 19.83105
25.71000, 23.33951
25.74000, 26.28485
25.77000, 28.84314
25.80000, 32.49039
25.83000, 33.12854
25.86000, 35.33960
25.89000, 33.43668
25.92000, 31.31860
25.95000, 30.42053
25.98000, 29.63031
26.01000, 29.08307
26.04000, 26.78873
26.07000, 25.99939
26.10000, 25.16788
26.13000, 21.02335
26.16000, 17.39471
26.19000, 16.79599
26.22000, 18.49225
26.25000, 18.44739
26.28000, 19.97861
26.31000, 19.97290
26.34000, 18.64722
26.37000, 19.73602
26.40000, 25.21823
26.43000, 33.67282
26.46000, 42.22897
26.49000, 45.88889
26.52000, 47.34659
26.55000, 48.10672
26.58000, 49.82956
26.61000, 55.88907
26.64000, 58.68518
26.67000, 62.78638
26.70000, 63.88794
26.73000, 66.00519
26.76000, 63.12634
26.79000, 61.30240
26.82000, 57.60727
26.85000, 51.54517
26.88000, 46.88123
26.91000, 45.25235
26.94000, 38.09338
26.97000, 33.27737
27.00000, 30.09241
27.03000, 22.31778
27.06000, 15.83231
27.09000, 15.12396
27.12000, 8.574890
27.15000, 3.292450
27.18000, 4.162079
27.21000, 3.315125
27.24000, 2.064148
27.27000, 0.7738040
27.30000, 4.957306
27.33000, 11.47311
27.36000, 11.08609
27.39000, 8.533234
27.42000, 5.928192
27.45000, 3.458801
27.48000, 2.497742
27.51000, 5.315674
27.54000, 4.185028
27.57000, 2.065125
27.60000, 1.606079
27.63000, 0.3393250
27.66000, 2.078400
27.69000, 0.4472050
27.72000, 2.063721
27.75000, 3.403961
27.78000, 3.676941
27.81000, 1.620544
27.84000, 5.0078999E-02
27.87000, 0.5771790
27.90000, 2.632660
27.93000, 4.427490
27.96000, 2.803497
27.99000, 2.140045
28.02000, 6.004150
28.05000, 6.297882
28.08000, 8.543152
28.11000, 12.94394
28.14000, 17.22723
28.17000, 20.89795
28.20000, 22.70810
28.23000, 20.76968
28.26000, 19.48361
28.29000, 21.65399
28.32000, 24.82266
28.35000, 28.50067
28.38000, 30.77100
28.41000, 31.18665
28.44000, 29.29752
28.47000, 23.91165
28.50000, 20.53305
28.53000, 20.31766
28.56000, 21.95950
28.59000, 27.29550
28.62000, 24.53464
28.65000, 22.58594
28.68000, 21.24942
28.71000, 17.37460
28.74000, 14.69360
28.77000, 11.72354
28.80000, 9.146301
28.83000, 8.042236
28.86000, 8.425232
28.89000, 6.761597
28.92000, 7.308350
28.95000, 11.42691
28.98000, 12.17487
29.01000, 13.12250
29.04000, 13.54843
29.07000, 13.61554
29.10000, 14.48962
29.13000, 13.80957
29.16000, 9.002808
29.19000, 6.161987
29.22000, 5.153320
29.25000, 6.881500
29.28000, 11.80646
29.31000, 13.34525
29.34000, 16.09888
29.37000, 19.00732
29.40000, 18.84161
29.43000, 15.28769
29.46000, 12.41861
29.49000, 14.51422
29.52000, 14.21271
29.55000, 15.59393
29.58000, 17.16858
29.61000, 21.10977
29.64000, 19.99036
29.67000, 23.45969
29.70000, 24.06177
29.73000, 21.10864
29.76000, 17.35025
29.79000, 12.92404
29.82000, 7.831177
29.85000, 4.636993
29.88000, 1.353546
29.91000, 3.324280
29.94000, 3.656677
29.97000, 4.959686
30.00000, 6.095428
30.03000, 5.004883
30.06000, 2.678955
30.09000, 3.063599
30.12000, 5.564819
30.15000, 2.624725
30.18000, 1.522888
30.21000, 0.6062010
30.24000, 3.808075
30.27000, 3.018524
30.30000, 6.054535
30.33000, 7.964172
30.36000, 9.238495
30.39000, 12.31046
30.42000, 12.77811
30.45000, 11.16742
30.48000, 11.89136
30.51000, 15.69891
30.54000, 18.71414
30.57000, 23.19601
30.60000, 25.48447
30.63000, 23.41959
30.66000, 23.36526
30.69000, 25.16458
30.72000, 24.31049
30.75000, 26.43301
30.78000, 28.12759
30.81000, 33.43381
30.84000, 32.63107
30.87000, 32.75888
30.90000, 34.70917
30.93000, 31.95132
30.96000, 33.56079
30.99000, 33.28555
31.02000, 30.83691
31.05000, 28.61789
31.08000, 31.33557
31.11000, 31.85391
31.14000, 32.43753
31.17000, 33.22882
31.20000, 31.14920
31.23000, 33.49362
31.26000, 32.80276
31.29000, 30.12054
31.32000, 32.22296
31.35000, 31.72705
31.38000, 28.34583
31.41000, 27.19226
31.44000, 18.72873
31.47000, 13.01388
31.50000, 11.50421
31.53000, 13.61646
31.56000, 16.41803
31.59000, 15.54239
31.62000, 12.25543
31.65000, 12.74112
31.68000, 13.87442
31.71000, 14.20947
31.74000, 13.10413
31.77000, 14.02545
31.80000, 12.96149
31.83000, 9.788147
31.86000, 8.121490
31.89000, 7.322479
31.92000, 7.350159
31.95000, 11.78351
31.98000, 13.93652
32.01000, 11.69424
32.04000, 10.65366
32.07000, 6.980743
32.10000, 4.719452
32.13000, 6.747894
32.16000, 6.785980
32.19000, 8.051788
32.22000, 7.758270
32.25000, 5.471405
32.28000, 1.538269
32.31000, 0.3696590
32.34000, 2.139740
32.37000, 2.037231
32.40000, 1.150238
32.43000, 0.7231750
32.46000, 4.092499
32.49000, 9.180298
32.52000, 12.33389
32.55000, 11.62891
32.58000, 7.683990
32.61000, 1.838104
32.64000, 1.280823
32.67000, 1.604370
32.70000, 2.324463
32.73000, 2.428162
32.76000, 3.338562
32.79000, 4.916565
32.82000, 6.930328
32.85000, 10.42172
32.88000, 12.58087
32.91000, 12.63766
32.94000, 12.43222
32.97000, 11.92044
33.00000, 10.76843
33.03000, 8.824097
33.06000, 7.244476
33.09000, 6.798523
33.12000, 6.116394
33.15000, 7.155640
33.18000, 5.644226
33.21000, 9.520233
33.24000, 10.61096
33.27000, 10.32043
33.30000, 10.08664
33.33000, 5.992554
33.36000, 3.072235
33.39000, 4.723633
33.42000, 5.905762
33.45000, 6.721558
33.48000, 8.778015
33.51000, 9.468109
33.54000, 7.621338
33.57000, 8.075134
33.60000, 4.505829
33.63000, 6.038055
33.66000, 4.927429
33.69000, 3.744720
33.72000, 6.637512
33.75000, 8.571564
33.78000, 11.08456
33.81000, 11.60138
33.84000, 13.36713
33.87000, 12.16461
33.90000, 10.92993
33.93000, 10.54504
33.96000, 17.03796
33.99000, 24.20670
34.02000, 23.88431
34.05000, 23.93671
34.08000, 23.19995
34.11000, 25.20605
34.14000, 25.47150
34.17000, 27.00967
34.20000, 28.73038
34.23000, 30.37384
34.26000, 34.12308
34.29000, 35.68631
34.32000, 37.11133
34.35000, 38.33102
34.38000, 38.37296
34.41000, 38.50360
34.44000, 37.37509
34.47000, 36.00342
34.50000, 30.66455
34.53000, 27.24310
34.56000, 23.89493
34.59000, 21.43948
34.62000, 20.79211
34.65000, 19.08920
34.68000, 18.40750
34.71000, 15.56879
34.74000, 13.44974
34.77000, 14.32886
34.80000, 15.19907
34.83000, 13.67117
34.86000, 13.54623
34.89000, 12.84421
34.92000, 11.36215
34.95000, 12.37296
34.98000, 13.99969
35.01000, 12.15436
35.04000, 11.42496
35.07000, 10.15356
35.10000, 10.93256
35.13000, 10.66312
35.16000, 10.40924
35.19000, 11.55798
35.22000, 10.96948
35.25000, 11.38016
35.28000, 13.28653
35.31000, 11.67032
35.34000, 9.908081
35.37000, 9.561096
35.40000, 11.07056
35.43000, 9.634399
35.46000, 7.541626
35.49000, 9.367706
35.52000, 8.272827
35.55000, 11.37836
35.58000, 9.334412
35.61000, 8.853333
35.64000, 10.47336
35.67000, 10.29156
35.70000, 13.63773
35.73000, 13.55066
35.76000, 17.06433
35.79000, 20.92404
35.82000, 21.35977
35.85000, 19.84952
35.88000, 19.31866
35.91000, 16.93710
35.94000, 11.70474
35.97000, 8.941681
36.00000, 10.33957
36.03000, 10.91855
36.06000, 6.903259
36.09000, 4.522705
36.12000, 7.764465
36.15000, 7.418976
36.18000, 9.508850
36.21000, 12.14752
36.24000, 8.257263
36.27000, 3.826172
36.30000, 4.684296
36.33000, 7.008270
36.36000, 8.797516
36.39000, 11.15561
36.42000, 12.98697
36.45000, 15.19260
36.48000, 17.74646
36.51000, 17.33359
36.54000, 17.06296
36.57000, 16.49951
36.60000, 14.74731
36.63000, 13.23138
36.66000, 10.28271
36.69000, 8.601257
36.72000, 7.059021
36.75000, 7.841095
36.78000, 7.596375
36.81000, 8.063934
36.84000, 11.71671
36.87000, 15.85773
36.90000, 19.56302
36.93000, 20.45355
36.96000, 21.88190
36.99000, 23.26392
37.02000, 21.73529
37.05000, 21.10535
37.08000, 20.99841
37.11000, 20.82980
37.14000, 17.45541
37.17000, 14.75555
37.20000, 14.93179
37.23000, 16.83185
37.26000, 18.32108
37.29000, 17.50119
37.32000, 17.82361
37.35000, 16.62961
37.38000, 16.27789
37.41000, 17.18381
37.44000, 16.74683
37.47000, 12.75000
37.50000, 9.410461
37.53000, 10.26007
37.56000, 12.03995
37.59000, 11.22906
37.62000, 11.51840
37.65000, 13.94498
37.68000, 12.51279
37.71000, 12.28784
37.74000, 11.81610
37.77000, 11.82962
37.80000, 11.85229
37.83000, 12.33929
37.86000, 12.32849
37.89000, 13.12488
37.92000, 19.60156
37.95000, 23.43442
37.98000, 22.60254
38.01000, 18.96991
38.04000, 19.41446
38.07000, 18.81128
38.10000, 19.37930
38.13000, 18.14655
38.16000, 18.99698
38.19000, 21.29062
38.22000, 24.98248
38.25000, 24.82446
38.28000, 21.63370
38.31000, 17.22906
38.34000, 12.96860
38.37000, 10.29333
38.40000, 10.06723
38.43000, 11.60825
38.46000, 13.52963
38.49000, 17.03049
38.52000, 18.03506
38.55000, 17.20477
38.58000, 14.72263
38.61000, 13.68066
38.64000, 11.41187
38.67000, 11.15823
38.70000, 9.473724
38.73000, 6.581390
38.76000, 4.737091
38.79000, 4.909943
38.82000, 3.396606
38.85000, 3.980042
38.88000, 3.246826
38.91000, 4.461304
38.94000, 5.318115
38.97000, 8.393707
39.00000, 8.161743
39.03000, 7.220459
39.06000, 5.182892
39.09000, 4.501434
39.12000, 5.676605
39.15000, 9.115021
39.18000, 9.603668
39.21000, 7.699341
39.24000, 6.664795
39.27000, 5.369629
39.30000, 3.225067
39.33000, 4.555939
39.36000, 5.489624
39.39000, 4.734344
39.42000, 3.703033
39.45000, 4.521698
39.48000, 2.944397
39.51000, 2.685577
39.54000, 3.064758
39.57000, 1.826752
39.60000, 3.387543
39.63000, 4.149994
39.66000, 3.684875
39.69000, 2.690491
39.72000, 6.231995
39.75000, 10.96683
39.78000, 12.19409
39.81000, 13.06924
39.84000, 12.32962
39.87000, 9.914520
39.90000, 7.407074
39.93000, 4.923370
39.96000, 4.209137
39.99000, 4.953857
40.02000, 6.729797
40.05000, 10.80539
40.08000, 14.06693
40.11000, 13.09631
40.14000, 10.78369
40.17000, 7.307922
40.20000, 5.504120
40.23000, 5.422211
40.26000, 6.143188
40.29000, 5.066101
40.32000, 5.789886
40.35000, 10.63358
40.38000, 12.44013
40.41000, 9.284576
40.44000, 8.536926
40.47000, 7.476166
40.50000, 1.694305
40.53000, 3.498291
40.56000, 2.878174
40.59000, 0.6181030
40.62000, 0.2153020
40.65000, 2.086487
40.68000, 2.113586
40.71000, 1.909454
40.74000, 0.8437810
40.77000, 0.7675480
40.80000, 0.9037480
40.83000, 0.4625550
40.86000, 0.8287660
40.89000, 1.031433
40.92000, 0.6180420
40.95000, 1.590637
40.98000, 0.5447390
41.01000, 0.9518740
41.04000, 4.846375
41.07000, 5.002563
41.10000, 6.394684
41.13000, 6.418060
41.16000, 6.870209
41.19000, 6.997162
41.22000, 8.034973
41.25000, 4.448486
41.28000, 5.880951
41.31000, 4.353973
41.34000, 6.298889
41.37000, 6.275574
41.40000, 7.051025
41.43000, 8.911346
41.46000, 9.177856
41.49000, 8.162170
41.52000, 7.875305
41.55000, 9.256195
41.58000, 9.420837
41.61000, 9.283234
41.64000, 7.090454
41.67000, 5.035339
41.70000, 7.583008
41.73000, 9.001465
41.76000, 7.099579
41.79000, 4.268524
41.82000, 5.299164
41.85000, 6.179565
41.88000, 6.780670
41.91000, 8.581573
41.94000, 9.613129
41.97000, 8.168457
42.00000, 4.972504
42.03000, 1.821259
42.06000, 1.701721
42.09000, 4.879791
42.12000, 6.601654
42.15000, 6.450226
42.18000, 3.798492
42.21000, 4.106537
42.24000, 7.284180
42.27000, 10.31158
42.30000, 8.816681
42.33000, 1.921448
42.36000, 0.4370730
42.39000, 9.7594999E-02
42.42000, 2.114868
42.45000, 0.8439330
42.48000, 2.279724
42.51000, 0.5089110
42.54000, 1.030487
42.57000, 0.4942630
42.60000, 4.896790
42.63000, 6.089630
42.66000, 5.219940
42.69000, 0.8388370
42.72000, 2.845032
42.75000, 2.815674
42.78000, 1.645874
42.81000, 1.456818
42.84000, 0.2386470
42.87000, 1.206421
42.90000, 1.365784
42.93000, 0.8800960
42.96000, 3.660339
42.99000, 5.788239
43.02000, 9.890747
43.05000, 11.03091
43.08000, 7.887726
43.11000, 7.445129
43.14000, 9.562195
43.17000, 7.017609
43.20000, 7.826447
43.23000, 10.29236
43.26000, 9.204865
43.29000, 7.186432
43.32000, 7.308105
43.35000, 3.721344
43.38000, 1.114105
43.41000, 2.331116
43.44000, 3.982605
43.47000, 2.311584
43.50000, 1.660065
43.53000, 3.785889
43.56000, 4.543213
43.59000, 3.091156
43.62000, 4.918549
43.65000, 7.338470
43.68000, 5.873932
43.71000, 8.062958
43.74000, 10.58655
43.77000, 10.74063
43.80000, 9.079285
43.83000, 9.482452
43.86000, 9.092194
43.89000, 11.31845
43.92000, 10.99426
43.95000, 9.311584
43.98000, 7.637482
44.01000, 7.752930
44.04000, 8.844849
44.07000, 12.32034
44.10000, 12.99945
44.13000, 12.85504
44.16000, 9.802124
44.19000, 5.749756
44.22000, 5.504456
44.25000, 6.298187
44.28000, 8.248505
44.31000, 11.01535
44.34000, 11.08450
44.37000, 9.404419
44.40000, 8.487305
44.43000, 10.43491
44.46000, 11.81219
44.49000, 11.42535
44.52000, 10.06192
44.55000, 10.71680
44.58000, 6.932404
44.61000, 2.229675
44.64000, 6.359680
44.67000, 13.65826
44.70000, 15.10846
44.73000, 13.61722
44.76000, 9.816559
44.79000, 5.616516
44.82000, 6.104034
44.85000, 11.24518
44.88000, 16.96286
44.91000, 18.65817
44.94000, 13.45908
44.97000, 9.940552
45.00000, 11.63678
45.03000, 10.82800
45.06000, 9.515350
45.09000, 9.979218
45.12000, 13.04166
45.15000, 16.32236
45.18000, 16.06903
45.21000, 14.01929
45.24000, 14.13715
45.27000, 11.68359
45.30000, 8.160889
45.33000, 6.470734
45.36000, 6.009186
45.39000, 5.628265
45.42000, 5.461670
45.45000, 7.342255
45.48000, 6.288147
45.51000, 8.356628
45.54000, 9.359772
45.57000, 12.66150
45.60000, 15.28488
45.63000, 13.51962
45.66000, 9.729767
45.69000, 7.756958
45.72000, 7.880798
45.75000, 8.559265
45.78000, 8.130371
45.81000, 10.77609
45.84000, 13.77045
45.87000, 13.10648
45.90000, 11.07108
45.93000, 9.318481
45.96000, 8.148499
45.99000, 10.32846
46.02000, 6.980469
46.05000, 2.859955
46.08000, 6.142456
46.11000, 4.251068
46.14000, 1.092133
46.17000, 0.6593930
46.20000, 1.601776
46.23000, 2.491211
46.26000, 2.255280
46.29000, 1.242584
46.32000, 0.2624210
46.35000, 1.146240
46.38000, 1.076569
46.41000, 2.869293
46.44000, 1.812866
46.47000, 2.935730
46.50000, 6.769653
46.53000, 3.846558
46.56000, 1.246277
46.59000, 4.417816
46.62000, 4.611176
46.65000, 2.675385
46.68000, 3.253418
46.71000, 2.514282
46.74000, 0.1520690
46.77000, 2.070709
46.80000, 2.206207
46.83000, 1.177979
46.86000, 1.126404
46.89000, 2.011414
46.92000, 6.839050
46.95000, 8.673401
46.98000, 9.567413
47.01000, 10.39624
47.04000, 10.18033
47.07000, 9.418640
47.10000, 12.09906
47.13000, 11.22980
47.16000, 12.82043
47.19000, 14.49670
47.22000, 11.18735
47.25000, 11.15030
47.28000, 11.26718
47.31000, 8.877960
47.34000, 7.467621
47.37000, 6.854218
47.40000, 7.513733
47.43000, 6.643127
47.46000, 7.807465
47.49000, 12.92273
47.52000, 16.22897
47.55000, 15.93909
47.58000, 15.07718
47.61000, 16.11917
47.64000, 15.34610
47.67000, 13.61496
47.70000, 7.022797
47.73000, 3.034576
47.76000, 3.134247
47.79000, 2.465057
47.82000, 5.943817
47.85000, 10.19153
47.88000, 8.890259
47.91000, 11.89661
47.94000, 8.109741
47.97000, 13.02869
48.00000, 13.46786
48.03000, 11.89911
48.06000, 6.867096
48.09000, 3.403839
48.12000, 4.358551
48.15000, 2.229706
48.18000, 3.443848
48.21000, 1.776611
48.24000, 0.9514770
48.27000, 1.965363
48.30000, 4.553253
48.33000, 4.480560
48.36000, 8.920074
48.39000, 6.304047
48.42000, 7.975983
48.45000, 8.630005
48.48000, 3.957062
48.51000, 2.752136
48.54000, 0.9720460
48.57000, 0.2989810
48.60000, 2.022461
48.63000, 0.4141850
48.66000, 0.1349790
48.69000, 1.346222
48.72000, 8.0444001E-02
48.75000, 0.8168330
48.78000, 0.8822330
48.81000, 3.746735
48.84000, 5.991211
48.87000, 7.418549
48.90000, 6.233246
48.93000, 7.236176
48.96000, 5.615143
48.99000, 5.002228
49.02000, 4.746490
49.05000, 4.733551
49.08000, 4.764343
49.11000, 6.072693
49.14000, 5.309357
49.17000, 6.461029
49.20000, 6.792847
49.23000, 9.942810
49.26000, 9.441895
49.29000, 4.434143
49.32000, 6.958588
49.35000, 8.454132
49.38000, 11.57779
49.41000, 13.52655
49.44000, 13.57843
49.47000, 13.53748
49.50000, 12.69464
49.53000, 11.14597
49.56000, 10.53375
49.59000, 7.833862
49.62000, 5.872925
49.65000, 2.922638
49.68000, 0.5275570
49.71000, 1.129669
49.74000, 5.848541
49.77000, 6.600922
49.80000, 4.608459
49.83000, 2.954529
49.86000, 3.258392
49.89000, 5.803894
49.92000, 7.819427
49.95000, 5.825256
49.98000, 3.310181
50.01000, 3.708130
50.04000, 4.686371
50.07000, 6.533081
50.10000, 5.159668
50.13000, 4.503601
50.16000, 8.374725
50.19000, 11.84409
50.22000, 11.33865
50.25000, 11.00943
50.28000, 12.53439
50.31000, 11.60260
50.34000, 11.63660
50.37000, 10.88229
50.40000, 9.143280
50.43000, 8.992371
50.46000, 7.682861
50.49000, 7.264587
50.52000, 5.555389
50.55000, 6.891724
50.58000, 5.555450
50.61000, 5.868469
50.64000, 6.966248
50.67000, 10.46732
50.70000, 9.863251
50.73000, 11.61642
50.76000, 14.50183
50.79000, 12.19424
50.82000, 10.18951
50.85000, 9.942810
50.88000, 11.30029
50.91000, 14.53513
50.94000, 13.23718
50.97000, 9.195496
51.00000, 3.912109
51.03000, 4.952972
51.06000, 7.369171
51.09000, 8.024567
51.12000, 4.219299
51.15000, 2.628265
51.18000, 1.368530
51.21000, 2.411041
51.24000, 3.264893
51.27000, 5.584961
51.30000, 4.873383
51.33000, 3.695038
51.36000, 0.9200440
51.39000, 0.4482730
51.42000, 4.108826
51.45000, 7.328674
51.48000, 7.622772
51.51000, 7.528198
51.54000, 9.114929
51.57000, 9.455994
51.60000, 10.19528
51.63000, 10.97391
51.66000, 11.16171
51.69000, 15.39188
51.72000, 18.28433
51.75000, 12.15509
51.78000, 9.675018
51.81000, 6.163055
51.84000, 6.494659
51.87000, 3.489014
51.90000, 3.049896
51.93000, 4.937134
51.96000, 5.433624
51.99000, 4.451385
52.02000, 5.960480
52.05000, 5.144775
52.08000, 5.747406
52.11000, 8.098358
52.14000, 7.946533
52.17000, 9.101868
52.20000, 9.987061
52.23000, 10.94711
52.26000, 10.13544
52.29000, 9.256073
52.32000, 8.319336
52.35000, 2.875641
52.38000, 4.237152
52.41000, 2.776947
52.44000, 1.085876
52.47000, 2.752197
52.50000, 9.271637
52.53000, 10.77432
52.56000, 9.978302
52.59000, 11.72690
52.62000, 8.656525
52.65000, 10.89941
52.68000, 9.962555
52.71000, 10.96909
52.74000, 8.147888
52.77000, 8.392029
52.80000, 8.818451
52.83000, 10.47720
52.86000, 12.92294
52.89000, 13.07431
52.92000, 13.45395
52.95000, 14.72986
52.98000, 8.585114
53.01000, 7.704681
53.04000, 9.669525
53.07000, 7.769653
53.10000, 10.63715
53.13000, 7.745911
53.16000, 3.322968
53.19000, 6.160400
53.22000, 4.711121
53.25000, 1.432129
53.28000, 1.695831
53.31000, 6.0454998E-02
53.34000, 0.4606020
53.37000, 2.108612
53.40000, 0.8291020
53.43000, 2.564911
53.46000, 7.785980
53.49000, 8.293335
53.52000, 7.416016
53.55000, 2.508392
53.58000, 2.716522
53.61000, 2.414490
53.64000, 1.787323
53.67000, 2.116577
53.70000, 4.746033
53.73000, 8.451782
53.76000, 11.31888
53.79000, 14.66125
53.82000, 9.812927
53.85000, 6.531250
53.88000, 9.255737
53.91000, 6.877563
53.94000, 6.381744
53.97000, 6.914734
54.00000, 7.569275
54.03000, 12.37146
54.06000, 17.02863
54.09000, 14.47000
54.12000, 11.63861
54.15000, 14.36749
54.18000, 9.766632
54.21000, 11.68698
54.24000, 16.13257
54.27000, 11.79654
54.30000, 8.754639
54.33000, 5.432098
54.36000, 0.7642520
54.39000, 1.867920
54.42000, 0.2348330
54.45000, 2.463837
54.48000, 5.055084
54.51000, 10.10858
54.54000, 16.30127
54.57000, 18.78122
54.60000, 18.21246
54.63000, 16.27887
54.66000, 14.32953
54.69000, 11.94046
54.72000, 11.49258
54.75000, 9.632935
54.78000, 7.237549
54.81000, 8.755371
54.84000, 8.167450
54.87000, 10.12372
54.90000, 8.470276
54.93000, 8.910004
54.96000, 8.618042
54.99000, 8.350647
55.02000, 12.50250
55.05000, 13.71356
55.08000, 16.17987
55.11000, 16.49344
55.14000, 12.15515
55.17000, 3.860138
55.20000, 2.138702
55.23000, 1.756409
55.26000, 0.8031620
55.29000, 4.330963
55.32000, 2.635986
55.35000, 0.7757570
55.38000, 1.780792
55.41000, 0.9134220
55.44000, 5.102478
55.47000, 7.473663
55.50000, 9.028534
55.53000, 10.45316
55.56000, 11.44653
55.59000, 11.56445
55.62000, 11.86112
55.65000, 12.91205
55.68000, 11.37820
55.71000, 12.30450
55.74000, 14.19406
55.77000, 9.968842
55.80000, 9.958313
55.83000, 11.10501
55.86000, 12.12994
55.89000, 8.864075
55.92000, 7.941681
55.95000, 10.80078
55.98000, 13.93338
56.01000, 13.78650
56.04000, 5.694061
56.07000, 0.2674560
56.10000, 3.342926
56.13000, 2.727478
56.16000, 7.2235003E-02
56.19000, 3.590027
56.22000, 7.713013
56.25000, 10.35812
56.28000, 11.05450
56.31000, 9.714020
56.34000, 7.278687
56.37000, 2.079529
56.40000, 1.689606
56.43000, 2.6154000E-02
56.46000, 4.441986
56.49000, 6.521332
56.52000, 5.138855
56.55000, 1.871735
56.58000, 3.379791
56.61000, 1.995087
56.64000, 4.355469
56.67000, 6.477081
56.70000, 4.403809
56.73000, 4.232727
56.76000, 6.912811
56.79000, 7.578064
56.82000, 5.496490
56.85000, 7.320068
56.88000, 7.734894
56.91000, 3.417755
56.94000, 9.844513
56.97000, 7.440796
57.00000, 5.653259
57.03000, 8.240906
57.06000, 8.704620
57.09000, 12.21652
57.12000, 14.03256
57.15000, 11.96176
57.18000, 9.547058
57.21000, 6.607117
57.24000, 7.801788
57.27000, 7.752563
57.30000, 9.537506
57.33000, 11.62497
57.36000, 9.108185
57.39000, 9.287598
57.42000, 10.20361
57.45000, 11.88428
57.48000, 11.09412
57.51000, 9.835022
57.54000, 2.871094
57.57000, 3.416321
57.60000, 0.7417910
57.63000, 5.812225
57.66000, 7.947449
57.69000, 8.879791
57.72000, 8.478882
57.75000, 8.470947
57.78000, 3.506775
57.81000, 2.534790
57.84000, 0.8480220
57.87000, 1.719452
57.90000, 4.041687
57.93000, 10.94861
57.96000, 16.51685
57.99000, 13.76355
58.02000, 10.75009
58.05000, 5.999756
58.08000, 5.691681
58.11000, 8.085663
58.14000, 7.527832
58.17000, 8.187195
58.20000, 9.782684
58.23000, 9.998322
58.26000, 10.26422
58.29000, 12.06015
58.32000, 10.04129
58.35000, 8.372589
58.38000, 10.54709
58.41000, 10.81369
58.44000, 9.815491
58.47000, 10.79645
58.50000, 10.85205
58.53000, 10.91757
58.56000, 15.48996
58.59000, 14.77570
58.62000, 11.79361
58.65000, 14.39969
58.68000, 9.614960
58.71000, 7.888428
58.74000, 9.057007
58.77000, 7.091827
58.80000, 4.425751
58.83000, 6.522949
58.86000, 8.380219
58.89000, 9.076691
58.92000, 8.729340
58.95000, 5.624237
58.98000, 3.550537
59.01000, 1.416290
59.04000, 0.5263980
59.07000, 0.3904720
59.10000, 2.069489
59.13000, 7.661652
59.16000, 11.01401
59.19000, 15.19766
59.22000, 12.49640
59.25000, 13.60941
59.28000, 16.43762
59.31000, 19.08597
59.34000, 16.15558
59.37000, 11.06537
59.40000, 8.746155
59.43000, 6.694092
59.46000, 3.021210
59.49000, 7.388672
59.52000, 14.18817
59.55000, 20.16513
59.58000, 17.89944
59.61000, 13.33585
59.64000, 11.67767
59.67000, 14.73773
59.70000, 15.51202
59.73000, 18.41425
59.76000, 13.52289
59.79000, 13.49271
59.82000, 13.90970
59.85000, 5.195892
59.88000, 1.081268
59.91000, 4.812775
59.94000, 6.016479
59.97000, 4.390442
60.00000, 5.112488
60.03000, 7.004028
60.06000, 5.731506
60.09000, 6.073914
60.12000, 3.614502
60.15000, 4.689514
60.18000, 3.522705
60.21000, 2.432068
60.24000, 6.064606
60.27000, 9.537384
60.30000, 8.549286
60.33000, 6.658386
60.36000, 6.181702
60.39000, 4.448181
60.42000, 5.547821
60.45000, 4.615723
60.48000, 3.989777
60.51000, 5.716034
60.54000, 5.561676
60.57000, 6.467285
60.60000, 8.762970
60.63000, 6.980774
60.66000, 8.462646
60.69000, 6.050781
60.72000, 2.518097
60.75000, 0.7446590
60.78000, 2.536041
60.81000, 0.1098630
60.84000, 2.971497
60.87000, 4.150909
60.90000, 0.3286130
60.93000, 1.383484
60.96000, 0.1446230
60.99000, 0.9291080
61.02000, 1.068115
61.05000, 1.418671
61.08000, 2.242767
61.11000, 2.157440
61.14000, 0.5708310
61.17000, 4.275818
61.20000, 4.048737
61.23000, 1.086304
61.26000, 5.749084
61.29000, 6.106201
61.32000, 4.449982
61.35000, 4.032623
61.38000, 4.184601
61.41000, 3.562469
61.44000, 1.522858
61.47000, 0.4818120
61.50000, 3.706879
61.53000, 3.173737
61.56000, 0.3863220
61.59000, 5.735718
61.62000, 7.680023
61.65000, 8.060608
61.68000, 9.122437
61.71000, 9.846619
61.74000, 8.020050
61.77000, 8.315735
61.80000, 8.261780
61.83000, 9.074066
61.86000, 7.586792
61.89000, 11.41077
61.92000, 13.01706
61.95000, 10.09460
61.98000, 8.247314
62.01000, 5.890900
62.04000, 3.916107
62.07000, 1.435913
62.10000, 0.1401670
62.13000, 1.538025
62.16000, 0.8111570
62.19000, 3.050690
62.22000, 8.585632
62.25000, 8.993958
62.28000, 7.786621
62.31000, 8.554382
62.34000, 3.678070
62.37000, 1.793060
62.40000, 2.578552
62.43000, 8.852631
62.46000, 15.79639
62.49000, 12.83664
62.52000, 7.088318
62.55000, 3.723572
62.58000, 3.288452
62.61000, 2.827057
62.64000, 8.024536
62.67000, 12.11765
62.70000, 14.74130
62.73000, 14.24750
62.76000, 12.39133
62.79000, 12.52271
62.82000, 11.80270
62.85000, 7.375366
62.88000, 7.170807
62.91000, 7.769989
62.94000, 10.99255
62.97000, 9.539429
63.00000, 8.618103
63.03000, 1.116913
63.06000, 0.9889220
63.09000, 1.205231
63.12000, 1.392761
63.15000, 1.051208
63.18000, 4.789368
63.21000, 1.820923
63.24000, 2.828278
63.27000, 6.105377
63.30000, 14.00974
63.33000, 16.65439
63.36000, 14.96399
63.39000, 13.09946
63.42000, 12.50128
63.45000, 12.68445
63.48000, 7.147034
63.51000, 7.892975
63.54000, 1.212341
63.57000, 5.006012
63.60000, 4.857300
63.63000, 1.536530
63.66000, 1.559967
63.69000, 1.283325
63.72000, 1.950684
63.75000, 6.572906
63.78000, 8.837433
63.81000, 9.562286
63.84000, 9.678436
63.87000, 13.04468
63.90000, 14.52316
63.93000, 11.59479
63.96000, 7.995483
63.99000, 5.068207
64.02000, 4.461853
64.05000, 6.434296
64.08000, 9.140717
64.11000, 9.884399
64.14000, 13.92807
64.17000, 12.41022
64.20000, 12.32501
64.23000, 10.76914
64.26000, 5.898529
64.29000, 2.988403
64.32000, 5.859802
64.35000, 5.809723
64.38000, 1.096893
64.41000, 0.6987920
64.44000, 0.7104190
64.47000, 3.114227
64.50000, 3.825592
64.53000, 6.265625
64.56000, 9.973328
64.59000, 5.726807
64.62000, 3.082642
64.65000, 6.826843
64.68000, 10.82510
64.71000, 11.56079
64.74000, 12.59995
64.77000, 11.29862
64.80000, 8.034729
64.83000, 9.594269
64.86000, 4.141968
64.89000, 3.891846
64.92000, 8.202454
64.95000, 5.635071
64.98000, 6.717834
65.01000, 6.268829
65.04000, 3.056061
65.07000, 6.535889
65.10000, 0.0000000E+00
##END=



