##NAMES=Planerite
##RRUFFID=R080123
##IDEAL CHEMISTRY=Al_6_(PO_4_)_2_(PO_3_OH)_2_(OH)_8_&#183;4H_2_O
##LOCALITY=Bruguers, Gav√°, Barcelona, Catalonia, Spain
##OWNER=RRUFF
##SOURCE=Joan Abella i Creus
##DESCRIPTION=Light green, microcrystalline fragments
##DIFFRACTION SAMPLE DESCRIPTION=Powder, using Mo radiation
##STATUS=The identification of this mineral has been confirmed only by X-ray diffraction
##URL=rruff.info/R080123
##CELL PARAMETERS=a: 7.528 b: 7.713 c: 10.087 alpha: 69.934 beta: 68.847 gamma: 64.544 volume: 480.75 crystal system: triclinic
5.450000, 0.0000000E+00
5.470000, 5.268466
5.490000, 3.129506
5.510000, 15.13811
5.530000, 13.27422
5.550000, 3.805046
5.570000, 2.018145
5.590000, 0.8739260
5.610000, 1.874209
5.630000, 7.687282
5.650000, 35.13493
5.670000, 69.40326
5.690000, 89.66431
5.710000, 115.4669
5.730000, 155.9802
5.750000, 197.8916
5.770000, 272.9244
5.790000, 346.4274
5.810000, 432.6944
5.830000, 502.3572
5.850000, 569.6371
5.870000, 619.0359
5.890000, 654.1579
5.910000, 673.3329
5.930000, 653.7962
5.950000, 618.0927
5.970000, 581.0981
5.990000, 510.3186
6.010000, 440.2642
6.030000, 385.4354
6.050000, 318.4326
6.070000, 267.0068
6.090000, 219.0054
6.110000, 176.2240
6.130000, 131.8449
6.150000, 106.4986
6.170000, 102.6791
6.190000, 108.2246
6.210000, 128.1929
6.230000, 164.8087
6.250000, 212.2485
6.270000, 275.2634
6.290000, 329.9517
6.310000, 413.8925
6.330000, 519.5095
6.350000, 639.3177
6.370000, 733.4252
6.390000, 835.9024
6.410000, 938.2254
6.430000, 995.7951
6.450000, 1062.183
6.470000, 1088.240
6.490000, 1070.442
6.510000, 1045.776
6.530000, 978.5326
6.550000, 914.9316
6.570000, 840.3659
6.590000, 734.2502
6.610000, 641.9763
6.630000, 552.3113
6.650000, 484.7473
6.670000, 421.6518
6.690000, 381.1097
6.710000, 353.0648
6.730000, 334.7659
6.750000, 305.8567
6.770000, 277.1515
6.790000, 239.6698
6.810000, 197.5506
6.830000, 162.0695
6.850000, 141.4879
6.870000, 121.0006
6.890000, 121.3488
6.910000, 100.7726
6.930000, 100.1190
6.950000, 94.07160
6.970000, 73.26257
6.990000, 52.17881
7.010000, 44.09436
7.030000, 43.50125
7.050000, 41.03550
7.070000, 46.80510
7.090000, 45.43199
7.110000, 29.42702
7.130000, 17.15893
7.150000, 9.651373
7.170000, 1.742830
7.190000, 3.821613
7.210000, 3.382802
7.230000, 2.619648
7.250000, 1.1882000E-02
7.270000, 1.669576
7.290000, 3.392756
7.310000, 4.3715000E-02
7.330000, 0.2958730
7.350000, 2.823631
7.370000, 1.392718
7.390000, 1.189460
7.410000, 3.773800
7.430000, 1.666293
7.450000, 1.897659
7.470000, 0.6987930
7.490000, 3.477921
7.510000, 7.096776
7.530000, 7.567115
7.550000, 1.676028
7.570000, 0.8114830
7.590000, 0.4754000
7.610000, 1.742475
7.630000, 9.814932
7.650000, 2.972865
7.670000, 0.8404050
7.690000, 2.641320
7.710000, 0.1407020
7.730000, 3.640434
7.750000, 4.502300
7.770000, 0.1832190
7.790000, 1.720410
7.810000, 4.119938
7.830000, 7.866672
7.850000, 8.445195
7.870000, 7.485074
7.890000, 8.376271
7.910000, 14.46788
7.930000, 35.62058
7.950000, 52.00622
7.970000, 65.93428
7.990000, 77.08280
8.010000, 81.65133
8.030000, 88.40257
8.050000, 98.53030
8.070000, 106.0164
8.090000, 106.1346
8.110000, 110.9212
8.130000, 107.7495
8.150000, 125.0273
8.170000, 140.6221
8.190000, 147.3614
8.210000, 175.1481
8.230000, 201.3468
8.250000, 212.6062
8.270000, 243.8586
8.290000, 262.2906
8.310000, 295.4805
8.330000, 339.7943
8.350000, 385.2087
8.370000, 435.1841
8.390000, 476.6009
8.410000, 520.6240
8.430000, 553.4543
8.450000, 571.8710
8.470000, 580.4462
8.490000, 601.2393
8.510000, 588.3053
8.530000, 545.9343
8.550000, 485.9525
8.570000, 430.2321
8.590000, 379.2100
8.610000, 335.0139
8.630000, 297.2015
8.650000, 261.6461
8.670000, 234.0164
8.690000, 210.7357
8.710000, 203.8126
8.730000, 206.3843
8.750000, 199.9674
8.770000, 184.6860
8.790000, 189.2108
8.810000, 188.9109
8.830000, 183.9337
8.850000, 189.2704
8.870000, 167.3830
8.890000, 139.2271
8.910000, 106.3817
8.930000, 90.92217
8.950000, 77.98789
8.970000, 77.47762
8.990000, 72.96546
9.010000, 56.65010
9.030000, 47.13332
9.050000, 37.31311
9.070000, 28.95631
9.090000, 37.54381
9.110000, 40.82250
9.130000, 23.18312
9.150000, 16.89566
9.170000, 5.940067
9.190000, 6.604368
9.210000, 5.765566
9.230000, 1.328290
9.250000, 5.601284
9.270000, 10.99384
9.290000, 19.25632
9.310000, 20.51955
9.330000, 25.72317
9.350000, 23.47259
9.370000, 22.30995
9.390000, 24.37628
9.410000, 41.01266
9.430000, 51.67599
9.450000, 52.45240
9.470000, 51.80380
9.490000, 44.56621
9.510000, 36.63369
9.530000, 43.54420
9.550000, 45.11075
9.570000, 33.15943
9.590000, 14.11392
9.610000, 4.127215
9.630000, 1.793321
9.650000, 13.73823
9.670000, 19.52396
9.690000, 22.57982
9.710000, 18.12554
9.730000, 21.65718
9.750000, 8.125013
9.770000, 2.358908
9.790000, 0.2891070
9.810000, 1.083465
9.830000, 3.076361
9.850000, 1.191147
9.870000, 4.584533
9.890000, 1.998219
9.910000, 4.957053
9.930000, 1.786716
9.950000, 2.636433
9.970000, 7.604609
9.990000, 7.945182
10.01000, 4.686368
10.03000, 9.058152
10.05000, 0.7123420
10.07000, 5.794358
10.09000, 3.887276
10.11000, 3.537411
10.13000, 9.993982
10.15000, 0.6895530
10.17000, 4.458652
10.19000, 1.7640000E-02
10.21000, 8.677998
10.23000, 5.191263
10.25000, 3.157701
10.27000, 0.7945670
10.29000, 4.175036
10.31000, 2.141445
10.33000, 1.814288
10.35000, 8.748373
10.37000, 11.34875
10.39000, 1.835553
10.41000, 4.016216
10.43000, 4.337688
10.45000, 6.810703
10.47000, 2.539945
10.49000, 20.40633
10.51000, 29.21292
10.53000, 55.54019
10.55000, 74.90055
10.57000, 87.22688
10.59000, 141.1182
10.61000, 208.4143
10.63000, 267.3171
10.65000, 364.3453
10.67000, 453.6943
10.69000, 554.4303
10.71000, 668.8076
10.73000, 794.2637
10.75000, 939.0698
10.77000, 1078.633
10.79000, 1242.054
10.81000, 1361.303
10.83000, 1500.172
10.85000, 1584.633
10.87000, 1653.382
10.89000, 1659.073
10.91000, 1635.771
10.93000, 1592.572
10.95000, 1533.968
10.97000, 1415.019
10.99000, 1301.544
11.01000, 1117.364
11.03000, 947.1182
11.05000, 788.6573
11.07000, 654.6302
11.09000, 543.1769
11.11000, 449.8167
11.13000, 385.2413
11.15000, 315.1487
11.17000, 262.4036
11.19000, 228.0414
11.21000, 195.9787
11.23000, 183.7109
11.25000, 190.1928
11.27000, 190.8097
11.29000, 181.9654
11.31000, 186.6302
11.33000, 204.4460
11.35000, 212.9489
11.37000, 233.9120
11.39000, 267.8751
11.41000, 282.4106
11.43000, 299.0982
11.45000, 310.5238
11.47000, 322.1007
11.49000, 342.8998
11.51000, 379.9768
11.53000, 420.7162
11.55000, 460.2413
11.57000, 524.8658
11.59000, 591.1351
11.61000, 631.3633
11.63000, 652.2803
11.65000, 716.3727
11.67000, 750.2449
11.69000, 799.4625
11.71000, 867.0250
11.73000, 893.6521
11.75000, 920.7242
11.77000, 934.6516
11.79000, 903.7036
11.81000, 868.3704
11.83000, 823.2421
11.85000, 801.0789
11.87000, 770.4406
11.89000, 733.1168
11.91000, 706.4375
11.93000, 659.7825
11.95000, 617.1470
11.97000, 567.8444
11.99000, 526.7240
12.01000, 510.0867
12.03000, 499.3623
12.05000, 475.0533
12.07000, 460.7899
12.09000, 450.3484
12.11000, 448.3330
12.13000, 456.2697
12.15000, 474.7097
12.17000, 503.5568
12.19000, 536.5865
12.21000, 571.2725
12.23000, 589.2524
12.25000, 601.8530
12.27000, 613.6755
12.29000, 625.9379
12.31000, 622.6708
12.33000, 624.9852
12.35000, 622.7360
12.37000, 609.0324
12.39000, 583.4744
12.41000, 554.2408
12.43000, 515.3889
12.45000, 494.0655
12.47000, 477.0483
12.49000, 446.9729
12.51000, 425.0661
12.53000, 398.6807
12.55000, 376.3098
12.57000, 340.3715
12.59000, 307.0940
12.61000, 268.0551
12.63000, 230.5058
12.65000, 202.7269
12.67000, 172.0739
12.69000, 151.3613
12.71000, 128.3355
12.73000, 112.9584
12.75000, 110.8546
12.77000, 115.1752
12.79000, 107.7018
12.81000, 109.4669
12.83000, 124.4222
12.85000, 136.1814
12.87000, 153.4677
12.89000, 192.2708
12.91000, 231.7812
12.93000, 291.6320
12.95000, 345.9771
12.97000, 399.3558
12.99000, 469.1677
13.01000, 517.6785
13.03000, 553.5892
13.05000, 566.2397
13.07000, 575.4048
13.09000, 553.3456
13.11000, 534.0040
13.13000, 501.2505
13.15000, 453.3548
13.17000, 397.2268
13.19000, 376.2443
13.21000, 325.9895
13.23000, 279.4572
13.25000, 252.1142
13.27000, 253.2235
13.29000, 259.9639
13.31000, 296.1517
13.33000, 310.3379
13.35000, 323.7792
13.37000, 327.5679
13.39000, 331.4626
13.41000, 329.4475
13.43000, 332.8386
13.45000, 330.7448
13.47000, 328.3899
13.49000, 324.5049
13.51000, 318.2191
13.53000, 305.1002
13.55000, 318.7151
13.57000, 328.0594
13.59000, 343.1229
13.61000, 366.0209
13.63000, 368.4730
13.65000, 377.9140
13.67000, 415.8844
13.69000, 454.4467
13.71000, 499.6730
13.73000, 547.8907
13.75000, 587.5121
13.77000, 638.1606
13.79000, 678.9941
13.81000, 737.4505
13.83000, 802.9238
13.85000, 867.3182
13.87000, 918.3831
13.89000, 964.5681
13.91000, 987.4037
13.93000, 978.4078
13.95000, 967.1036
13.97000, 961.9692
13.99000, 947.1345
14.01000, 907.2299
14.03000, 861.0478
14.05000, 851.5657
14.07000, 829.2133
14.09000, 782.4709
14.11000, 743.5878
14.13000, 672.3472
14.15000, 620.9346
14.17000, 579.2639
14.19000, 517.4998
14.21000, 468.8053
14.23000, 418.9854
14.25000, 376.2628
14.27000, 334.2907
14.29000, 285.2791
14.31000, 235.6988
14.33000, 212.2089
14.35000, 169.4770
14.37000, 140.9596
14.39000, 118.4989
14.41000, 82.39616
14.43000, 58.95260
14.45000, 46.28047
14.47000, 34.62136
14.49000, 25.50844
14.51000, 22.86851
14.53000, 15.97599
14.55000, 17.06526
14.57000, 17.86828
14.59000, 13.42889
14.61000, 1.898803
14.63000, 5.350821
14.65000, 7.951383
14.67000, 6.436153
14.69000, 10.02926
14.71000, 12.86378
14.73000, 20.39943
14.75000, 10.84029
14.77000, 14.55252
14.79000, 2.516797
14.81000, 11.21901
14.83000, 1.361306
14.85000, 1.596961
14.87000, 8.209803
14.89000, 1.330866
14.91000, 4.925230
14.93000, 0.7584590
14.95000, 7.064395
14.97000, 5.107054
14.99000, 8.106516
15.01000, 3.939551
15.03000, 6.686317
15.05000, 4.811040
15.07000, 3.696670
15.09000, 5.086978
15.11000, 6.126073
15.13000, 1.739300
15.15000, 6.479087
15.17000, 1.114788
15.19000, 1.991405
15.21000, 1.984335
15.23000, 6.447312
15.25000, 4.372391
15.27000, 3.761020
15.29000, 4.183432
15.31000, 5.371670
15.33000, 2.319770
15.35000, 0.3362440
15.37000, 4.512722
15.39000, 4.351853
15.41000, 6.4066000E-02
15.43000, 3.830201
15.45000, 1.652871
15.47000, 6.060731
15.49000, 5.536266
15.51000, 3.109246
15.53000, 5.293001
15.55000, 0.3423610
15.57000, 1.385001
15.59000, 5.110065
15.61000, 0.7322510
15.63000, 4.735657
15.65000, 13.99330
15.67000, 22.08683
15.69000, 31.81820
15.71000, 48.52742
15.73000, 65.86447
15.75000, 65.18938
15.77000, 76.52205
15.79000, 98.02354
15.81000, 123.4258
15.83000, 152.2950
15.85000, 183.1859
15.87000, 216.8665
15.89000, 242.6399
15.91000, 267.9200
15.93000, 285.3421
15.95000, 295.5657
15.97000, 307.9833
15.99000, 317.6691
16.01000, 332.1739
16.03000, 342.8740
16.05000, 342.9658
16.07000, 338.2310
16.09000, 335.5108
16.11000, 323.3578
16.13000, 317.1038
16.15000, 295.1945
16.17000, 270.3643
16.19000, 255.0661
16.21000, 242.6882
16.23000, 232.9989
16.25000, 226.0450
16.27000, 208.3817
16.29000, 187.1379
16.31000, 166.5795
16.33000, 145.3918
16.35000, 137.0324
16.37000, 127.7707
16.39000, 135.1087
16.41000, 124.9724
16.43000, 125.9091
16.45000, 132.0312
16.47000, 124.6858
16.49000, 130.2008
16.51000, 148.4918
16.53000, 151.0274
16.55000, 153.0018
16.57000, 139.7168
16.59000, 128.4381
16.61000, 129.7410
16.63000, 133.6814
16.65000, 137.4682
16.67000, 136.9799
16.69000, 143.5212
16.71000, 137.1253
16.73000, 133.6380
16.75000, 135.1690
16.77000, 136.3172
16.79000, 138.4483
16.81000, 135.2153
16.83000, 136.3844
16.85000, 149.8987
16.87000, 163.7347
16.89000, 176.5340
16.91000, 185.5768
16.93000, 194.7350
16.95000, 200.0887
16.97000, 200.0259
16.99000, 203.1376
17.01000, 212.5715
17.03000, 215.5430
17.05000, 222.5222
17.07000, 226.5557
17.09000, 245.4778
17.11000, 251.6983
17.13000, 256.1635
17.15000, 263.7873
17.17000, 269.6724
17.19000, 268.4922
17.21000, 277.1175
17.23000, 273.9904
17.25000, 266.4121
17.27000, 256.2622
17.29000, 255.7816
17.31000, 239.2525
17.33000, 250.5111
17.35000, 257.0538
17.37000, 253.1067
17.39000, 245.5618
17.41000, 242.5529
17.43000, 245.8938
17.45000, 250.6905
17.47000, 251.5311
17.49000, 259.7437
17.51000, 273.7129
17.53000, 287.7034
17.55000, 290.3873
17.57000, 295.0760
17.59000, 304.2673
17.61000, 316.0096
17.63000, 326.8960
17.65000, 334.6217
17.67000, 336.0322
17.69000, 322.2581
17.71000, 311.4139
17.73000, 302.6802
17.75000, 297.3212
17.77000, 299.1285
17.79000, 285.8655
17.81000, 256.0949
17.83000, 229.9391
17.85000, 203.4373
17.87000, 179.3718
17.89000, 185.0344
17.91000, 191.7893
17.93000, 191.2675
17.95000, 188.6336
17.97000, 187.1146
17.99000, 168.1818
18.01000, 175.1191
18.03000, 164.0173
18.05000, 151.0797
18.07000, 151.9171
18.09000, 142.4023
18.11000, 128.1613
18.13000, 126.1744
18.15000, 121.9263
18.17000, 103.8925
18.19000, 86.08743
18.21000, 62.05748
18.23000, 48.17460
18.25000, 36.78331
18.27000, 26.30255
18.29000, 11.37794
18.31000, 0.8203730
18.33000, 3.610099
18.35000, 2.281230
18.37000, 0.9559190
18.39000, 0.8321900
18.41000, 3.735590
18.43000, 3.309385
18.45000, 2.105366
18.47000, 3.736204
18.49000, 3.410795
18.51000, 0.9444880
18.53000, 3.524811
18.55000, 4.067187
18.57000, 0.1643870
18.59000, 2.140352
18.61000, 1.848036
18.63000, 7.360794
18.65000, 11.49724
18.67000, 11.81025
18.69000, 10.13891
18.71000, 9.738553
18.73000, 4.872508
18.75000, 4.117836
18.77000, 1.317804
18.79000, 2.838650
18.81000, 10.45340
18.83000, 16.19503
18.85000, 8.808414
18.87000, 2.995528
18.89000, 0.7206660
18.91000, 3.173913
18.93000, 0.4518760
18.95000, 0.5652770
18.97000, 4.615177
18.99000, 5.491220
19.01000, 11.81438
19.03000, 9.131821
19.05000, 11.42414
19.07000, 8.437865
19.09000, 6.113506
19.11000, 2.411384
19.13000, 2.983259
19.15000, 0.7570130
19.17000, 0.5177910
19.19000, 2.753035
19.21000, 1.164085
19.23000, 5.587480
19.25000, 3.364237
19.27000, 3.444859
19.29000, 0.1782860
19.31000, 3.233139
19.33000, 2.553982
19.35000, 0.3349380
19.37000, 1.704949
19.39000, 14.57486
19.41000, 18.05891
19.43000, 27.19646
19.45000, 39.49772
19.47000, 40.30970
19.49000, 39.62000
19.51000, 56.05560
19.53000, 68.74857
19.55000, 90.99686
19.57000, 106.5386
19.59000, 120.4256
19.61000, 134.4751
19.63000, 159.4780
19.65000, 173.1269
19.67000, 182.2679
19.69000, 194.1157
19.71000, 203.0330
19.73000, 194.8134
19.75000, 191.6484
19.77000, 180.7752
19.79000, 180.9538
19.81000, 173.0052
19.83000, 175.0130
19.85000, 182.3705
19.87000, 181.0293
19.89000, 169.1604
19.91000, 142.9459
19.93000, 140.1405
19.95000, 138.9477
19.97000, 141.3141
19.99000, 142.2502
20.01000, 143.6925
20.03000, 135.2770
20.05000, 148.4339
20.07000, 148.9080
20.09000, 152.8042
20.11000, 168.0852
20.13000, 180.5473
20.15000, 186.2813
20.17000, 195.0678
20.19000, 203.1109
20.21000, 210.7012
20.23000, 215.3936
20.25000, 224.9911
20.27000, 226.7007
20.29000, 228.8620
20.31000, 218.2866
20.33000, 213.8144
20.35000, 212.0779
20.37000, 218.9359
20.39000, 218.3104
20.41000, 209.0833
20.43000, 198.7071
20.45000, 191.2095
20.47000, 183.5785
20.49000, 182.6733
20.51000, 173.1186
20.53000, 172.1617
20.55000, 165.8424
20.57000, 145.0798
20.59000, 135.1558
20.61000, 128.6214
20.63000, 92.94495
20.65000, 82.80376
20.67000, 69.91510
20.69000, 50.95794
20.71000, 44.00635
20.73000, 33.34212
20.75000, 24.74760
20.77000, 22.63899
20.79000, 27.48050
20.81000, 26.56238
20.83000, 23.94539
20.85000, 14.17339
20.87000, 2.702899
20.89000, 2.087150
20.91000, 2.3587000E-02
20.93000, 4.314892
20.95000, 1.045263
20.97000, 0.3784960
20.99000, 0.3067300
21.01000, 3.714817
21.03000, 10.37527
21.05000, 15.74615
21.07000, 23.77378
21.09000, 26.19457
21.11000, 34.28991
21.13000, 42.88467
21.15000, 53.94653
21.17000, 68.73206
21.19000, 83.87455
21.21000, 91.67171
21.23000, 111.8190
21.25000, 110.0753
21.27000, 129.3367
21.29000, 142.9411
21.31000, 151.1369
21.33000, 161.7086
21.35000, 185.6702
21.37000, 206.4320
21.39000, 219.2758
21.41000, 234.3444
21.43000, 244.3134
21.45000, 250.0532
21.47000, 258.1841
21.49000, 255.8530
21.51000, 251.4500
21.53000, 235.8738
21.55000, 240.8775
21.57000, 242.6170
21.59000, 214.2151
21.61000, 211.4291
21.63000, 222.0968
21.65000, 221.0470
21.67000, 215.7473
21.69000, 199.7597
21.71000, 201.9908
21.73000, 210.1373
21.75000, 217.5352
21.77000, 213.4898
21.79000, 214.3237
21.81000, 227.6459
21.83000, 228.8731
21.85000, 217.3656
21.87000, 217.3337
21.89000, 213.0170
21.91000, 208.3996
21.93000, 210.8656
21.95000, 208.2348
21.97000, 220.6243
21.99000, 236.3770
22.01000, 243.5581
22.03000, 238.4013
22.05000, 221.4569
22.07000, 220.2306
22.09000, 214.0102
22.11000, 202.5643
22.13000, 211.4294
22.15000, 211.3949
22.17000, 200.2853
22.19000, 181.8560
22.21000, 153.9193
22.23000, 139.4838
22.25000, 131.3867
22.27000, 119.9634
22.29000, 104.4005
22.31000, 77.84856
22.33000, 52.65916
22.35000, 47.23324
22.37000, 45.08180
22.39000, 49.52761
22.41000, 54.86214
22.43000, 45.32601
22.45000, 42.08833
22.47000, 35.99993
22.49000, 33.95000
22.51000, 35.44947
22.53000, 35.27790
22.55000, 41.41146
22.57000, 50.34507
22.59000, 57.34872
22.61000, 66.72339
22.63000, 62.22297
22.65000, 57.37943
22.67000, 56.65078
22.69000, 62.28594
22.71000, 67.76191
22.73000, 80.74267
22.75000, 83.29519
22.77000, 84.79241
22.79000, 86.05630
22.81000, 74.74391
22.83000, 72.32420
22.85000, 76.50520
22.87000, 68.68081
22.89000, 50.69107
22.91000, 37.56102
22.93000, 20.94363
22.95000, 19.45685
22.97000, 11.97572
22.99000, 5.499224
23.01000, 0.3220450
23.03000, 2.141125
23.05000, 5.533236
23.07000, 24.22624
23.09000, 4.505019
23.11000, 2.779800
23.13000, 1.674886
23.15000, 2.460439
23.17000, 0.7412650
23.19000, 2.468745
23.21000, 1.562958
23.23000, 5.151733
23.25000, 2.172794
23.27000, 2.261233
23.29000, 1.529168
23.31000, 2.689432
23.33000, 7.435166
23.35000, 5.862685
23.37000, 5.291260
23.39000, 0.5652140
23.41000, 2.383317
23.43000, 1.564311
23.45000, 0.8638990
23.47000, 1.484612
23.49000, 0.5586960
23.51000, 8.807979
23.53000, 14.70904
23.55000, 14.46648
23.57000, 11.68238
23.59000, 22.00280
23.61000, 33.86462
23.63000, 32.66986
23.65000, 49.50550
23.67000, 52.02456
23.69000, 61.89648
23.71000, 53.32801
23.73000, 49.28630
23.75000, 48.14610
23.77000, 52.06232
23.79000, 46.79797
23.81000, 41.64611
23.83000, 28.36717
23.85000, 21.10764
23.87000, 5.935624
23.89000, 2.322999
23.91000, 1.895183
23.93000, 0.3088620
23.95000, 1.314007
23.97000, 7.0612997E-02
23.99000, 1.124489
24.01000, 1.602232
24.03000, 0.7107680
24.05000, 0.2849540
24.07000, 0.7807560
24.09000, 1.345835
24.11000, 1.941458
24.13000, 1.474353
24.15000, 0.9011210
24.17000, 1.288690
24.19000, 1.424218
24.21000, 5.4977998E-02
24.23000, 1.192158
24.25000, 5.055923
24.27000, 5.542815
24.29000, 13.73547
24.31000, 20.61091
24.33000, 19.74687
24.35000, 12.65496
24.37000, 12.69090
24.39000, 10.66438
24.41000, 5.920701
24.43000, 4.406640
24.45000, 2.196669
24.47000, 1.285057
24.49000, 0.6047640
24.51000, 1.860937
24.53000, 2.375470
24.55000, 0.9220500
24.57000, 0.9044870
24.59000, 0.6022380
24.61000, 2.645114
24.63000, 0.6182460
24.65000, 0.4766550
24.67000, 3.014762
24.69000, 3.055998
24.71000, 0.1378360
24.73000, 0.2462710
24.75000, 1.724962
24.77000, 4.291552
24.79000, 6.153777
24.81000, 2.354323
24.83000, 2.488514
24.85000, 2.804759
24.87000, 1.653159
24.89000, 0.1171670
24.91000, 7.802350
24.93000, 5.599104
24.95000, 6.374424
24.97000, 9.857369
24.99000, 14.90288
25.01000, 15.14102
25.03000, 12.56678
25.05000, 4.346277
25.07000, 10.21039
25.09000, 11.07531
25.11000, 0.2850720
25.13000, 1.144902
25.15000, 7.132588
25.17000, 4.349126
25.19000, 8.664521
25.21000, 21.24871
25.23000, 27.14178
25.25000, 33.61578
25.27000, 38.67369
25.29000, 37.90655
25.31000, 43.95255
25.33000, 44.35917
25.35000, 49.55694
25.37000, 49.62880
25.39000, 48.96271
25.41000, 32.69032
25.43000, 3.782447
25.45000, 2.979769
25.47000, 0.1963450
25.49000, 7.378045
25.51000, 21.55640
25.53000, 28.90570
25.55000, 19.97126
25.57000, 12.55539
25.59000, 2.978725
25.61000, 7.654366
25.63000, 1.555752
25.65000, 4.917318
25.67000, 4.006361
25.69000, 2.917025
25.71000, 17.82698
25.73000, 22.40987
25.75000, 23.89653
25.77000, 25.94137
25.79000, 36.92022
25.81000, 39.84529
25.83000, 29.20818
25.85000, 13.06462
25.87000, 20.25032
25.89000, 24.83682
25.91000, 33.07124
25.93000, 39.16059
25.95000, 45.57188
25.97000, 52.08028
25.99000, 53.13793
26.01000, 58.98692
26.03000, 62.77331
26.05000, 70.11413
26.07000, 79.08640
26.09000, 90.12012
26.11000, 73.01530
26.13000, 66.08196
26.15000, 71.69821
26.17000, 80.05704
26.19000, 75.04665
26.21000, 76.20238
26.23000, 82.97089
26.25000, 84.58121
26.27000, 81.63120
26.29000, 90.55161
26.31000, 92.76167
26.33000, 88.65308
26.35000, 95.69061
26.37000, 102.2886
26.39000, 104.6831
26.41000, 100.6322
26.43000, 89.40562
26.45000, 67.39236
26.47000, 69.99150
26.49000, 68.58804
26.51000, 61.84640
26.53000, 63.60991
26.55000, 73.72588
26.57000, 81.55855
26.59000, 74.18420
26.61000, 69.04430
26.63000, 77.54182
26.65000, 76.66051
26.67000, 82.74074
26.69000, 85.41457
26.71000, 91.37761
26.73000, 94.66264
26.75000, 104.4641
26.77000, 97.91714
26.79000, 90.76820
26.81000, 93.86869
26.83000, 98.19563
26.85000, 95.61130
26.87000, 100.9164
26.89000, 104.9910
26.91000, 105.7863
26.93000, 115.1109
26.95000, 110.4889
26.97000, 113.7594
26.99000, 116.2403
27.01000, 122.0969
27.03000, 132.9170
27.05000, 144.4286
27.07000, 150.6714
27.09000, 174.4480
27.11000, 180.3600
27.13000, 194.7542
27.15000, 208.1457
27.17000, 217.3878
27.19000, 233.1528
27.21000, 257.8659
27.23000, 264.5643
27.25000, 276.1040
27.27000, 292.3125
27.29000, 290.5315
27.31000, 266.2007
27.33000, 266.5344
27.35000, 256.8233
27.37000, 237.6976
27.39000, 220.9160
27.41000, 200.4900
27.43000, 193.8412
27.45000, 175.8189
27.47000, 157.9808
27.49000, 148.0102
27.51000, 143.9318
27.53000, 122.1279
27.55000, 102.0903
27.57000, 90.44320
27.59000, 90.51846
27.61000, 86.73117
27.63000, 90.81223
27.65000, 85.93876
27.67000, 83.59579
27.69000, 82.10424
27.71000, 78.67715
27.73000, 72.07761
27.75000, 71.17455
27.77000, 55.42999
27.79000, 51.77783
27.81000, 47.89185
27.83000, 53.22973
27.85000, 52.13908
27.87000, 59.84375
27.89000, 57.51511
27.91000, 56.80843
27.93000, 55.43422
27.95000, 62.27023
27.97000, 63.67524
27.99000, 54.94202
28.01000, 36.88398
28.03000, 22.04769
28.05000, 19.24631
28.07000, 29.33341
28.09000, 43.23488
28.11000, 46.96895
28.13000, 47.72873
28.15000, 52.58123
28.17000, 39.06343
28.19000, 38.41410
28.21000, 38.24951
28.23000, 29.75781
28.25000, 32.19180
28.27000, 27.72907
28.29000, 15.39139
28.31000, 5.240415
28.33000, 6.094069
28.35000, 0.3605650
28.37000, 2.171487
28.39000, 16.01105
28.41000, 17.74135
28.43000, 18.87035
28.45000, 16.48196
28.47000, 15.86922
28.49000, 21.48912
28.51000, 23.04160
28.53000, 15.11278
28.55000, 5.857579
28.57000, 0.5390210
28.59000, 3.112116
28.61000, 7.890455
28.63000, 21.27660
28.65000, 27.18236
28.67000, 36.27273
28.69000, 32.24461
28.71000, 36.39586
28.73000, 44.76210
28.75000, 56.28863
28.77000, 59.65250
28.79000, 65.06173
28.81000, 56.54962
28.83000, 52.01533
28.85000, 44.05529
28.87000, 39.04800
28.89000, 43.85334
28.91000, 37.39517
28.93000, 23.70081
28.95000, 29.72178
28.97000, 31.01895
28.99000, 19.24099
29.01000, 16.71622
29.03000, 10.82502
29.05000, 5.614372
29.07000, 4.226235
29.09000, 2.954065
29.11000, 1.375536
29.13000, 2.197460
29.15000, 0.8706240
29.17000, 1.782709
29.19000, 4.261263
29.21000, 4.817853
29.23000, 2.011657
29.25000, 0.2529960
29.27000, 4.881678
29.29000, 5.584889
29.31000, 9.525547
29.33000, 7.698814
29.35000, 14.24843
29.37000, 22.12820
29.39000, 27.56785
29.41000, 26.90425
29.43000, 37.24984
29.45000, 47.78442
29.47000, 47.12616
29.49000, 42.65102
29.51000, 41.03153
29.53000, 41.11876
29.55000, 44.90170
29.57000, 53.83329
29.59000, 53.68586
29.61000, 54.91389
29.63000, 57.53783
29.65000, 54.36276
29.67000, 53.38507
29.69000, 57.92378
29.71000, 60.55685
29.73000, 50.51122
29.75000, 50.21384
29.77000, 52.51168
29.79000, 47.74276
29.81000, 43.67204
29.83000, 44.58947
29.85000, 46.63407
29.87000, 46.29481
29.89000, 52.75765
29.91000, 47.32475
29.93000, 44.17388
29.95000, 51.39606
29.97000, 47.60928
29.99000, 49.24938
30.01000, 56.73496
30.03000, 53.06578
30.05000, 56.35839
30.07000, 62.51586
30.09000, 64.76461
30.11000, 76.16193
30.13000, 75.86422
30.15000, 81.06129
30.17000, 86.81509
30.19000, 85.20872
30.21000, 82.70287
30.23000, 84.02977
30.25000, 82.08128
30.27000, 71.47843
30.29000, 73.71320
30.31000, 72.24249
30.33000, 60.52325
30.35000, 58.97552
30.37000, 45.53622
30.39000, 35.51516
30.41000, 43.93962
30.43000, 49.29847
30.45000, 43.75349
30.47000, 39.57223
30.49000, 39.75629
30.51000, 26.64713
30.53000, 34.18884
30.55000, 27.79858
30.57000, 22.26463
30.59000, 25.08271
30.61000, 19.93480
30.63000, 22.64281
30.65000, 21.15859
30.67000, 21.58367
30.69000, 20.62292
30.71000, 19.11659
30.73000, 14.32379
30.75000, 18.99126
30.77000, 10.36255
30.79000, 16.42825
30.81000, 18.95125
30.83000, 9.131960
30.85000, 11.52133
30.87000, 18.63836
30.89000, 15.73093
30.91000, 5.506429
30.93000, 1.536947
30.95000, 8.444464
30.97000, 15.66317
30.99000, 14.37267
31.01000, 14.31036
31.03000, 15.02445
31.05000, 3.648945
31.07000, 2.157854
31.09000, 1.377544
31.11000, 16.49324
31.13000, 15.34917
31.15000, 12.12932
31.17000, 5.869630
31.19000, 1.545033
31.21000, 0.4297480
31.23000, 1.337619
31.25000, 3.414374
31.27000, 0.7932990
31.29000, 3.043522
31.31000, 6.264022
31.33000, 2.329849
31.35000, 0.5899880
31.37000, 0.4951450
31.39000, 2.497608
31.41000, 2.109763
31.43000, 3.368446
31.45000, 3.0880000E-03
31.47000, 1.708263
31.49000, 5.057632
31.51000, 10.03142
31.53000, 5.976006
31.55000, 2.193213
31.57000, 1.951547
31.59000, 2.902204
31.61000, 1.737325
31.63000, 7.2788000E-02
31.65000, 2.514562
31.67000, 0.3728120
31.69000, 0.1379720
31.71000, 3.036889
31.73000, 1.730797
31.75000, 0.6809260
31.77000, 0.7635880
31.79000, 0.3965370
31.81000, 0.9037750
31.83000, 3.831472
31.85000, 1.413691
31.87000, 4.750007
31.89000, 13.83011
31.91000, 18.00655
31.93000, 19.40040
31.95000, 14.67555
31.97000, 17.08805
31.99000, 31.83880
32.01000, 43.56787
32.03000, 65.96018
32.05000, 79.90478
32.07000, 80.37254
32.09000, 78.01857
32.11000, 71.24089
32.13000, 66.64140
32.15000, 80.28411
32.17000, 101.0379
32.19000, 114.2612
32.21000, 128.9384
32.23000, 138.2048
32.25000, 145.5397
32.27000, 150.9242
32.29000, 154.4471
32.31000, 158.6732
32.33000, 161.2103
32.35000, 155.6924
32.37000, 155.8042
32.39000, 143.5340
32.41000, 143.3936
32.43000, 142.1576
32.45000, 132.8815
32.47000, 138.5710
32.49000, 141.5844
32.51000, 143.6757
32.53000, 162.6528
32.55000, 173.6689
32.57000, 184.6869
32.59000, 183.7630
32.61000, 181.7367
32.63000, 170.6885
32.65000, 167.1823
32.67000, 161.6437
32.69000, 153.5112
32.71000, 153.2705
32.73000, 144.5127
32.75000, 136.3758
32.77000, 141.5078
32.79000, 138.4245
32.81000, 127.8071
32.83000, 115.7956
32.85000, 114.2104
32.87000, 106.0004
32.89000, 92.75710
32.91000, 90.28051
32.93000, 91.41768
32.95000, 89.54839
32.97000, 85.58600
32.99000, 75.72825
33.01000, 67.94922
33.03000, 59.69024
33.05000, 47.35480
33.07000, 38.14778
33.09000, 36.51044
33.11000, 43.55469
33.13000, 47.27763
33.15000, 45.16925
33.17000, 51.10174
33.19000, 53.82291
33.21000, 53.67113
33.23000, 46.84385
33.25000, 43.49070
33.27000, 42.24015
33.29000, 48.43497
33.31000, 52.04274
33.33000, 60.28061
33.35000, 68.89838
33.37000, 62.22128
33.39000, 58.24274
33.41000, 71.81244
33.43000, 74.66169
33.45000, 63.95449
33.47000, 66.16569
33.49000, 88.24934
33.51000, 96.16253
33.53000, 110.0101
33.55000, 120.6483
33.57000, 121.8650
33.59000, 116.3471
33.61000, 126.5992
33.63000, 125.7997
33.65000, 119.9200
33.67000, 126.5416
33.69000, 124.2858
33.71000, 120.0923
33.73000, 110.5722
33.75000, 111.7876
33.77000, 110.6862
33.79000, 123.0967
33.81000, 117.4989
33.83000, 108.0815
33.85000, 100.0104
33.87000, 88.33691
33.89000, 77.58939
33.91000, 76.21969
33.93000, 72.73045
33.95000, 57.09373
33.97000, 64.27726
33.99000, 63.50395
34.01000, 68.57395
34.03000, 71.51101
34.05000, 72.99965
34.07000, 62.82689
34.09000, 40.87538
34.11000, 34.83270
34.13000, 43.36370
34.15000, 42.56125
34.17000, 45.20241
34.19000, 37.60052
34.21000, 37.16744
34.23000, 29.84818
34.25000, 31.11372
34.27000, 20.21884
34.29000, 18.13296
34.31000, 19.54706
34.33000, 15.22913
34.35000, 14.94828
34.37000, 23.01840
34.39000, 24.30254
34.41000, 22.78735
34.43000, 21.74276
34.45000, 21.09687
34.47000, 18.34281
34.49000, 18.66632
34.51000, 13.72829
34.53000, 12.54035
34.55000, 11.89846
34.57000, 9.608078
34.59000, 7.883891
34.61000, 5.615427
34.63000, 4.697642
34.65000, 3.354395
34.67000, 3.143990
34.69000, 3.223330
34.71000, 2.743405
34.73000, 0.9826600
34.75000, 1.137117
34.77000, 2.822273
34.79000, 0.1381010
34.81000, 0.7150300
34.83000, 0.8344160
34.85000, 1.030694
34.87000, 10.74778
34.89000, 17.30249
34.91000, 15.43641
34.93000, 11.52363
34.95000, 11.32709
34.97000, 14.41184
34.99000, 13.16549
35.01000, 18.28641
35.03000, 11.24400
35.05000, 23.75568
35.07000, 25.46171
35.09000, 18.78804
35.11000, 19.47668
35.13000, 13.02268
35.15000, 18.84202
35.17000, 10.45571
35.19000, 4.177814
35.21000, 9.513278
35.23000, 1.586806
35.25000, 2.157169
35.27000, 9.1071002E-02
35.29000, 8.713997
35.31000, 3.020316
35.33000, 0.5408590
35.35000, 2.702987
35.37000, 5.148339
35.39000, 8.437149
35.41000, 2.283881
35.43000, 0.6785410
35.45000, 1.460058
35.47000, 7.601030
35.49000, 10.70923
35.51000, 13.86597
35.53000, 16.09928
35.55000, 2.268475
35.57000, 0.5733710
35.59000, 0.1070400
35.61000, 9.165742
35.63000, 8.746977
35.65000, 1.941383
35.67000, 1.388199
35.69000, 1.233936
35.71000, 0.1521300
35.73000, 1.611253
35.75000, 1.599117
35.77000, 0.2853760
35.79000, 3.890438
35.81000, 3.355103
35.83000, 1.115600
35.85000, 1.264827
35.87000, 3.443305
35.89000, 6.106700
35.91000, 4.799786
35.93000, 1.610537
35.95000, 2.478959
35.97000, 3.799107
35.99000, 0.6490390
36.01000, 4.256319
36.03000, 2.094911
36.05000, 8.601514
36.07000, 6.477253
36.09000, 3.684745
36.11000, 1.792821
36.13000, 3.979581
36.15000, 8.396397
36.17000, 20.49195
36.19000, 19.26789
36.21000, 18.41535
36.23000, 7.391298
36.25000, 1.715216
36.27000, 1.538882
36.29000, 8.226513
36.31000, 13.76381
36.33000, 18.63710
36.35000, 21.36548
36.37000, 24.45565
36.39000, 23.02872
36.41000, 16.56562
36.43000, 11.70310
36.45000, 12.45515
36.47000, 23.20377
36.49000, 28.74829
36.51000, 27.65366
36.53000, 24.24863
36.55000, 22.55865
36.57000, 18.72743
36.59000, 24.61798
36.61000, 22.71830
36.63000, 31.76608
36.65000, 33.47249
36.67000, 30.34125
36.69000, 36.21092
36.71000, 32.67978
36.73000, 32.69489
36.75000, 30.80988
36.77000, 34.46879
36.79000, 38.10374
36.81000, 44.07707
36.83000, 38.44357
36.85000, 36.34782
36.87000, 39.59234
36.89000, 39.03940
36.91000, 52.78215
36.93000, 45.37033
36.95000, 44.47742
36.97000, 48.15870
36.99000, 39.89186
37.01000, 40.70791
37.03000, 45.01046
37.05000, 50.01387
37.07000, 58.02500
37.09000, 65.00729
37.11000, 71.84943
37.13000, 69.01509
37.15000, 52.15898
37.17000, 56.38211
37.19000, 42.97382
37.21000, 29.33081
37.23000, 23.36481
37.25000, 38.64353
37.27000, 44.68735
37.29000, 48.99117
37.31000, 42.42394
37.33000, 34.49131
37.35000, 28.21119
37.37000, 32.24425
37.39000, 31.02008
37.41000, 38.61349
37.43000, 30.17788
37.45000, 33.57029
37.47000, 20.84864
37.49000, 29.67900
37.51000, 28.12474
37.53000, 18.23347
37.55000, 11.19268
37.57000, 3.641387
37.59000, 2.257648
37.61000, 13.24309
37.63000, 29.15184
37.65000, 32.50942
37.67000, 35.87893
37.69000, 38.36055
37.71000, 40.77519
37.73000, 36.38505
37.75000, 24.10085
37.77000, 14.35773
37.79000, 10.01067
37.81000, 9.960320
37.83000, 15.11322
37.85000, 9.804490
37.87000, 4.725870
37.89000, 12.87136
37.91000, 5.104022
37.93000, 0.4663130
37.95000, 1.673300
37.97000, 6.341251
37.99000, 1.472461
38.01000, 1.717808
38.03000, 8.016899
38.05000, 8.546280
38.07000, 15.02207
38.09000, 22.71868
38.11000, 24.19803
38.13000, 20.79725
38.15000, 16.90821
38.17000, 22.30296
38.19000, 22.36322
38.21000, 11.68085
38.23000, 6.572721
38.25000, 11.33809
38.27000, 17.92176
38.29000, 26.13977
38.31000, 21.80022
38.33000, 18.70900
38.35000, 17.41013
38.37000, 6.330697
38.39000, 1.119754
38.41000, 5.618415
38.43000, 12.36882
38.45000, 16.80861
38.47000, 16.71469
38.49000, 1.388172
38.51000, 0.6735130
38.53000, 3.165741
38.55000, 0.3249180
38.57000, 1.063294
38.59000, 3.916934
38.61000, 4.187788
38.63000, 1.570506
38.65000, 1.101581
38.67000, 4.284904
38.69000, 12.35745
38.71000, 6.736198
38.73000, 5.534091
38.75000, 0.4773270
38.77000, 1.697429
38.79000, 7.070447
38.81000, 3.889029
38.83000, 9.671109
38.85000, 14.20427
38.87000, 16.78450
38.89000, 18.28877
38.91000, 18.44691
38.93000, 15.99151
38.95000, 14.97291
38.97000, 8.897375
38.99000, 4.437828
39.01000, 0.5112950
39.03000, 3.197881
39.05000, 4.748631
39.07000, 5.676088
39.09000, 5.501851
39.11000, 6.350843
39.13000, 1.316244
39.15000, 3.082630
39.17000, 1.346491
39.19000, 1.609866
39.21000, 0.9983700
39.23000, 2.163073
39.25000, 0.3320970
39.27000, 9.919060
39.29000, 10.44852
39.31000, 15.01601
39.33000, 15.39945
39.35000, 16.73610
39.37000, 9.213106
39.39000, 17.82464
39.41000, 15.69751
39.43000, 15.58105
39.45000, 22.92831
39.47000, 17.48853
39.49000, 2.134043
39.51000, 11.07455
39.53000, 5.226036
39.55000, 1.429687
39.57000, 0.3601080
39.59000, 0.2148200
39.61000, 0.9903450
39.63000, 14.27310
39.65000, 19.77584
39.67000, 9.697748
39.69000, 1.481326
39.71000, 0.2613930
39.73000, 1.460926
39.75000, 0.4652770
39.77000, 0.3626040
39.79000, 5.644200
39.81000, 7.720831
39.83000, 10.05947
39.85000, 14.99611
39.87000, 16.65578
39.89000, 18.69920
39.91000, 17.66222
39.93000, 21.49843
39.95000, 20.18802
39.97000, 20.96455
39.99000, 14.12226
40.01000, 25.14980
40.03000, 21.59280
40.05000, 22.90536
40.07000, 29.64894
40.09000, 35.82648
40.11000, 33.70397
40.13000, 32.17562
40.15000, 32.41422
40.17000, 31.41632
40.19000, 33.48341
40.21000, 29.81387
40.23000, 24.15630
40.25000, 19.79207
40.27000, 7.000831
40.29000, 5.711578
40.31000, 0.5964190
40.33000, 10.18712
40.35000, 24.65887
40.37000, 25.08060
40.39000, 27.53129
40.41000, 38.54317
40.43000, 35.46653
40.45000, 23.68400
40.47000, 20.94295
40.49000, 17.13324
40.51000, 20.90405
40.53000, 24.50644
40.55000, 19.36491
40.57000, 13.12451
40.59000, 10.51424
40.61000, 10.43414
40.63000, 10.64106
40.65000, 17.32049
40.67000, 18.06557
40.69000, 24.41882
40.71000, 32.72519
40.73000, 34.28271
40.75000, 35.40636
40.77000, 32.10316
40.79000, 25.20429
40.81000, 41.21176
40.83000, 48.27237
40.85000, 34.48127
40.87000, 24.12333
40.89000, 24.09856
40.91000, 4.383800
40.93000, 0.6393970
40.95000, 15.67401
40.97000, 29.38184
40.99000, 28.89182
41.01000, 21.41600
41.03000, 13.33677
41.05000, 10.75510
41.07000, 10.18865
41.09000, 10.63237
41.11000, 6.370317
41.13000, 1.342294
41.15000, 0.7045630
41.17000, 0.9601760
41.19000, 4.117005
41.21000, 12.20337
41.23000, 17.10098
41.25000, 26.35185
41.27000, 27.55479
41.29000, 34.35939
41.31000, 27.46308
41.33000, 24.89500
41.35000, 18.83122
41.37000, 20.42670
41.39000, 12.59245
41.41000, 0.6975070
41.43000, 1.197212
41.45000, 1.453353
41.47000, 1.151981
41.49000, 0.2427320
41.51000, 6.150184
41.53000, 11.14386
41.55000, 15.45383
41.57000, 15.80996
41.59000, 5.443856
41.61000, 0.2348440
41.63000, 6.0805999E-02
41.65000, 1.109149
41.67000, 9.412472
41.69000, 3.215833
41.71000, 18.26695
41.73000, 1.107811
41.75000, 0.1968920
41.77000, 1.333131
41.79000, 0.9000790
41.81000, 2.617563
41.83000, 1.326926
41.85000, 0.4610100
41.87000, 5.370459
41.89000, 17.75922
41.91000, 19.25423
41.93000, 22.19159
41.95000, 13.75256
41.97000, 13.05563
41.99000, 12.20404
42.01000, 17.31292
42.03000, 16.48182
42.05000, 10.53854
42.07000, 5.789816
42.09000, 7.151776
42.11000, 0.2385570
42.13000, 0.3925740
42.15000, 2.871169
42.17000, 13.07198
42.19000, 17.10757
42.21000, 21.08557
42.23000, 15.68211
42.25000, 6.582096
42.27000, 1.274516
42.29000, 0.3156860
42.31000, 0.3204340
42.33000, 0.1636520
42.35000, 1.567025
42.37000, 0.5980240
42.39000, 2.509709
42.41000, 20.42293
42.43000, 36.52954
42.45000, 19.68804
42.47000, 8.213024
42.49000, 7.562429
42.51000, 7.177325
42.53000, 14.63870
42.55000, 12.83176
42.57000, 12.91243
42.59000, 16.26747
42.61000, 13.11778
42.63000, 16.90793
42.65000, 10.30143
42.67000, 4.009438
42.69000, 4.208952
42.71000, 17.26467
42.73000, 15.01051
42.75000, 15.29864
42.77000, 25.93628
42.79000, 27.24783
42.81000, 26.07728
42.83000, 22.60808
42.85000, 19.50524
42.87000, 31.22973
42.89000, 26.95432
42.91000, 18.50374
42.93000, 22.95732
42.95000, 37.21291
42.97000, 43.68301
42.99000, 51.74554
43.01000, 50.11453
43.03000, 44.38996
43.05000, 39.29686
43.07000, 35.94722
43.09000, 31.18703
43.11000, 28.62559
43.13000, 26.77509
43.15000, 23.78036
43.17000, 20.81178
43.19000, 18.50340
43.21000, 17.18588
43.23000, 18.51612
43.25000, 21.19227
43.27000, 21.10090
43.29000, 18.50705
43.31000, 23.90933
43.33000, 28.99402
43.35000, 30.50232
43.37000, 38.71614
43.39000, 32.71930
43.41000, 35.96941
43.43000, 22.40997
43.45000, 19.38110
43.47000, 16.76426
43.49000, 17.12599
43.51000, 24.63624
43.53000, 26.74985
43.55000, 22.71674
43.57000, 19.65194
43.59000, 22.40105
43.61000, 11.41476
43.63000, 3.449001
43.65000, 8.431850
43.67000, 1.136258
43.69000, 5.095413
43.71000, 7.377554
43.73000, 8.617583
43.75000, 14.23043
43.77000, 19.10898
43.79000, 22.04411
43.81000, 32.35882
43.83000, 36.56299
43.85000, 27.03417
43.87000, 16.31778
43.89000, 18.64087
43.91000, 26.48431
43.93000, 16.69049
43.95000, 10.70544
43.97000, 18.53666
43.99000, 12.75119
44.01000, 2.174939
44.03000, 2.399302
44.05000, 0.2666740
44.07000, 12.04974
44.09000, 12.18676
44.11000, 5.926748
44.13000, 1.915822
44.15000, 1.175760
44.17000, 6.6480003E-02
44.19000, 3.542103
44.21000, 3.832333
44.23000, 6.690829
44.25000, 8.142171
44.27000, 9.386180
44.29000, 15.40166
44.31000, 15.31659
44.33000, 16.71796
44.35000, 18.39475
44.37000, 11.50817
44.39000, 11.32630
44.41000, 5.034389
44.43000, 0.7679500
44.45000, 1.803910
44.47000, 1.876292
44.49000, 2.919058
44.51000, 8.158710
44.53000, 4.847980
44.55000, 9.477097
44.57000, 18.01292
44.59000, 10.89928
44.61000, 18.34710
44.63000, 23.27318
44.65000, 19.30294
44.67000, 11.97492
44.69000, 16.56773
44.71000, 21.44652
44.73000, 24.50483
44.75000, 19.03410
44.77000, 16.45409
44.79000, 16.35933
44.81000, 15.64997
44.83000, 13.51326
44.85000, 18.27730
44.87000, 22.63676
44.89000, 24.04466
44.91000, 16.35538
44.93000, 6.821454
44.95000, 4.074804
44.97000, 0.7860370
44.99000, 4.8574001E-02
45.01000, 10.34638
45.03000, 18.68141
45.05000, 20.49610
45.07000, 24.13361
45.09000, 16.64407
45.11000, 7.475200
45.13000, 7.277368
45.15000, 10.02319
45.17000, 11.86749
45.19000, 7.591987
45.21000, 15.82394
45.23000, 5.942244
45.25000, 2.108507
45.27000, 0.3618630
45.29000, 2.746312
45.31000, 2.2800000E-02
45.33000, 13.63293
45.35000, 23.33358
45.37000, 33.56715
45.39000, 37.10967
45.41000, 32.56215
45.43000, 25.44154
45.45000, 14.05550
45.47000, 10.57300
45.49000, 8.402329
45.51000, 6.124111
45.53000, 5.890405
45.55000, 3.099565
45.57000, 7.1526997E-02
45.59000, 0.1354990
45.61000, 0.6625970
45.63000, 9.519447
45.65000, 17.04532
45.67000, 9.549160
45.69000, 5.316958
45.71000, 3.628756
45.73000, 17.44954
45.75000, 32.96262
45.77000, 40.50630
45.79000, 42.32792
45.81000, 22.70925
45.83000, 6.258697
45.85000, 7.622019
45.87000, 17.77161
45.89000, 33.96933
45.91000, 35.85634
45.93000, 36.48382
45.95000, 34.98969
45.97000, 29.04740
45.99000, 26.57973
46.01000, 30.76949
46.03000, 34.00964
46.05000, 27.99417
46.07000, 19.69166
46.09000, 22.62553
46.11000, 28.42754
46.13000, 35.99760
46.15000, 34.06271
46.17000, 26.34586
46.19000, 26.07816
46.21000, 17.78379
46.23000, 15.39186
46.25000, 13.64315
46.27000, 15.07085
46.29000, 22.89639
46.31000, 21.82028
46.33000, 22.02828
46.35000, 30.54992
46.37000, 17.94559
46.39000, 13.51265
46.41000, 14.41604
46.43000, 15.78636
46.45000, 26.94738
46.47000, 38.75808
46.49000, 37.31207
46.51000, 40.75190
46.53000, 39.85950
46.55000, 41.47373
46.57000, 37.54543
46.59000, 39.90269
46.61000, 34.23475
46.63000, 26.17426
46.65000, 25.06094
46.67000, 28.71188
46.69000, 32.77813
46.71000, 36.58845
46.73000, 33.63659
46.75000, 17.89109
46.77000, 10.44771
46.79000, 10.36494
46.81000, 14.11680
46.83000, 5.683176
46.85000, 13.50670
46.87000, 11.31400
46.89000, 0.4109780
46.91000, 7.766510
46.93000, 15.00808
46.95000, 12.45506
46.97000, 6.570122
46.99000, 0.5284510
47.01000, 3.034633
47.03000, 24.36600
47.05000, 29.67657
47.07000, 22.20741
47.09000, 21.62676
47.11000, 18.88304
47.13000, 13.28632
47.15000, 5.207767
47.17000, 7.937646
47.19000, 6.100426
47.21000, 8.7993003E-02
47.23000, 9.371259
47.25000, 13.27162
47.27000, 19.85470
47.29000, 15.38602
47.31000, 0.1208090
47.33000, 1.766583
47.35000, 0.1938740
47.37000, 0.1920120
47.39000, 0.8624090
47.41000, 7.826223
47.43000, 13.94267
47.45000, 17.75562
47.47000, 17.01823
47.49000, 19.03650
47.51000, 19.99399
47.53000, 11.60254
47.55000, 12.54488
47.57000, 12.23233
47.59000, 4.582102
47.61000, 1.4902000E-02
47.63000, 1.118412
47.65000, 1.651829
47.67000, 0.0000000E+00
##END=



