##NAMES=Platinum
##RRUFFID=R060750
##IDEAL CHEMISTRY=Pt
##LOCALITY=Bear Creek, near Nyak, Alaska, USA
##OWNER=RRUFF
##SOURCE=Michael Scott
##DESCRIPTION=Silver metallic water-worn nuggets
##DIFFRACTION SAMPLE DESCRIPTION=Powder, using Mo radiation
##STATUS=The identification of this mineral has been confirmed by X-ray diffraction.
##URL=rruff.info/R060750
##CELL PARAMETERS=a: 3.883(3) b: 3.883(3) c: 3.883(3) alpha: 90 beta: 90 gamma: 90 volume: 58.6(1) crystal system: cubic
5.750000, 0.0000000E+00
5.770000, 1.259658
5.790000, 1.961251
5.810000, 3.031245
5.830000, 4.141300
5.850000, 4.604835
5.870000, 5.796380
5.890000, 8.191088
5.910000, 10.27847
5.930000, 9.929516
5.950000, 8.054358
5.970000, 9.706945
5.990000, 12.04933
6.010000, 10.27567
6.030000, 6.792553
6.050000, 3.193057
6.070000, 2.045537
6.090000, 0.6486900
6.110000, 0.8163600
6.130000, 1.831845
6.150000, 5.241656
6.170000, 7.852507
6.190000, 9.026345
6.210000, 8.286217
6.230000, 7.763021
6.250000, 8.225290
6.270000, 9.645570
6.290000, 9.477143
6.310000, 8.458243
6.330000, 6.308884
6.350000, 5.191613
6.370000, 4.469202
6.390000, 3.762065
6.410000, 4.018044
6.430000, 8.070825
6.450000, 12.72120
6.470000, 12.65279
6.490000, 8.873522
6.510000, 6.972289
6.530000, 5.865420
6.550000, 6.336944
6.570000, 5.128482
6.590000, 3.714249
6.610000, 6.434141
6.630000, 7.239892
6.650000, 7.742968
6.670000, 10.38017
6.690000, 9.800639
6.710000, 7.696780
6.730000, 3.450846
6.750000, 4.173021
6.770000, 7.138341
6.790000, 8.056914
6.810000, 6.556508
6.830000, 6.136292
6.850000, 5.345984
6.870000, 3.403729
6.890000, 4.818244
6.910000, 6.504697
6.930000, 4.994484
6.950000, 2.874708
6.970000, 3.852693
6.990000, 5.035107
7.010000, 4.245015
7.030000, 2.591076
7.050000, 0.8349590
7.070000, 0.1440540
7.090000, 1.964164
7.110000, 4.176805
7.130000, 4.249078
7.150000, 5.358644
7.170000, 7.581975
7.190000, 8.815566
7.210000, 10.67650
7.230000, 10.25158
7.250000, 8.468184
7.270000, 5.325739
7.290000, 4.824205
7.310000, 6.900784
7.330000, 7.658928
7.350000, 6.680043
7.370000, 4.612916
7.390000, 4.696681
7.410000, 5.730526
7.430000, 2.913705
7.450000, 0.4264660
7.470000, 0.3000840
7.490000, 1.918319
7.510000, 2.037117
7.530000, 0.3421320
7.550000, 6.5558001E-02
7.570000, 0.7557580
7.590000, 5.8579999E-03
7.610000, 0.9248780
7.630000, 1.365783
7.650000, 3.0254001E-02
7.670000, 0.5943730
7.690000, 1.234003
7.710000, 0.9371650
7.730000, 0.4783960
7.750000, 0.1035680
7.770000, 1.055001
7.790000, 1.527154
7.810000, 1.758545
7.830000, 0.6646700
7.850000, 0.6780720
7.870000, 1.798249
7.890000, 1.818585
7.910000, 3.605423
7.930000, 6.459530
7.950000, 7.589800
7.970000, 7.709380
7.990000, 6.200123
8.010000, 5.736132
8.030000, 5.380087
8.050000, 3.065477
8.070000, 2.833709
8.090000, 3.518969
8.110000, 4.334334
8.130000, 4.794863
8.150000, 4.064684
8.170000, 0.9776900
8.190000, 6.7988999E-02
8.210000, 0.4806490
8.230000, 1.9834001E-02
8.250000, 0.4030780
8.270000, 1.518461
8.290000, 0.1932320
8.310000, 1.642970
8.330000, 3.950532
8.350000, 6.639156
8.370000, 6.977280
8.390000, 4.953514
8.410000, 4.103389
8.430000, 3.987874
8.450000, 3.627912
8.470000, 2.428525
8.490000, 1.929142
8.510000, 3.444588
8.530000, 5.028973
8.550000, 4.329772
8.570000, 3.811811
8.590000, 1.683945
8.610000, 0.3015470
8.630000, 0.8812660
8.650000, 0.4291180
8.670000, 0.2180070
8.690000, 1.934973
8.710000, 5.251668
8.730000, 6.501595
8.750000, 6.635943
8.770000, 4.174110
8.790000, 0.7586110
8.810000, 8.4973000E-02
8.830000, 1.274417
8.850000, 2.766710
8.870000, 4.241474
8.890000, 4.599205
8.910000, 4.722342
8.930000, 5.212515
8.950000, 2.784824
8.970000, 3.011396
8.990000, 4.459969
9.010000, 4.491151
9.030000, 4.698944
9.050000, 3.077076
9.070000, 0.3426160
9.090000, 0.3685980
9.110000, 0.5155370
9.130000, 1.111031
9.150000, 3.471457
9.170000, 5.627055
9.190000, 7.246101
9.210000, 8.124612
9.230000, 7.370100
9.250000, 5.956023
9.270000, 7.101018
9.290000, 6.553521
9.310000, 3.682433
9.330000, 4.706010
9.350000, 6.556954
9.370000, 4.841877
9.390000, 2.494234
9.410000, 0.6393390
9.430000, 1.665669
9.450000, 2.280163
9.470000, 3.606718
9.490000, 5.776337
9.510000, 6.078972
9.530000, 6.418861
9.550000, 6.765627
9.570000, 7.339336
9.590000, 6.874352
9.610000, 7.261319
9.630000, 5.343148
9.650000, 3.321051
9.670000, 5.103405
9.690000, 3.666368
9.710000, 0.9120980
9.730000, 0.7821780
9.750000, 0.2459380
9.770000, 0.6539740
9.790000, 1.510300
9.810000, 3.792074
9.830000, 4.109253
9.850000, 3.854045
9.870000, 2.496129
9.890000, 0.8812040
9.910000, 0.4955380
9.930000, 0.5363940
9.950000, 1.117033
9.970000, 1.619146
9.990000, 0.2131660
10.01000, 0.6562580
10.03000, 1.037523
10.05000, 1.582591
10.07000, 2.110180
10.09000, 3.193155
10.11000, 2.288459
10.13000, 2.441065
10.15000, 3.045270
10.17000, 2.072714
10.19000, 2.521619
10.21000, 1.615765
10.23000, 0.4502740
10.25000, 0.5326920
10.27000, 0.8205860
10.29000, 0.5598680
10.31000, 1.130301
10.33000, 0.6801840
10.35000, 0.2135150
10.37000, 0.1269210
10.39000, 1.417507
10.41000, 2.892459
10.43000, 3.499625
10.45000, 3.482094
10.47000, 2.806616
10.49000, 1.980890
10.51000, 0.2015020
10.53000, 4.0589999E-02
10.55000, 1.331454
10.57000, 1.613955
10.59000, 1.047446
10.61000, 2.094205
10.63000, 3.558352
10.65000, 3.909863
10.67000, 4.012747
10.69000, 4.341423
10.71000, 3.895307
10.73000, 3.624488
10.75000, 4.406947
10.77000, 3.245408
10.79000, 2.714703
10.81000, 2.116912
10.83000, 2.304941
10.85000, 0.9695860
10.87000, 0.1718370
10.89000, 1.161866
10.91000, 1.678271
10.93000, 1.566688
10.95000, 1.049621
10.97000, 1.223864
10.99000, 1.133192
11.01000, 2.249788
11.03000, 2.100097
11.05000, 0.7354080
11.07000, 0.2955030
11.09000, 0.3289870
11.11000, 0.3988260
11.13000, 0.4353480
11.15000, 0.9347730
11.17000, 2.772215
11.19000, 1.249520
11.21000, 1.649869
11.23000, 3.655003
11.25000, 3.719975
11.27000, 1.734689
11.29000, 8.7549999E-02
11.31000, 1.7464001E-02
11.33000, 1.806029
11.35000, 2.655048
11.37000, 1.641390
11.39000, 1.576860
11.41000, 3.746859
11.43000, 3.944186
11.45000, 3.512946
11.47000, 3.454237
11.49000, 2.265042
11.51000, 1.501227
11.53000, 1.471739
11.55000, 8.7513000E-02
11.57000, 0.2169640
11.59000, 0.4844380
11.61000, 4.7389001E-02
11.63000, 0.9253490
11.65000, 2.351537
11.67000, 2.848331
11.69000, 1.929902
11.71000, 1.300027
11.73000, 0.8220360
11.75000, 0.6348150
11.77000, 0.3487570
11.79000, 2.328251
11.81000, 3.466554
11.83000, 1.025121
11.85000, 0.1581000
11.87000, 0.2391420
11.89000, 2.140280
11.91000, 3.247877
11.93000, 3.223493
11.95000, 3.391717
11.97000, 4.632906
11.99000, 4.533738
12.01000, 1.807125
12.03000, 0.5003640
12.05000, 0.8225550
12.07000, 1.923395
12.09000, 3.580152
12.11000, 4.023620
12.13000, 2.968260
12.15000, 2.661288
12.17000, 2.703909
12.19000, 2.517029
12.21000, 3.833787
12.23000, 5.746247
12.25000, 5.080370
12.27000, 3.558323
12.29000, 2.473595
12.31000, 2.073952
12.33000, 0.6192670
12.35000, 0.1502340
12.37000, 1.279305
12.39000, 0.8261470
12.41000, 0.2778600
12.43000, 1.818278
12.45000, 4.426322
12.47000, 5.118578
12.49000, 5.310147
12.51000, 4.520036
12.53000, 2.733274
12.55000, 1.351711
12.57000, 0.8964760
12.59000, 1.823446
12.61000, 2.107810
12.63000, 0.8992960
12.65000, 0.6258900
12.67000, 0.1590160
12.69000, 0.3363570
12.71000, 1.005155
12.73000, 1.829158
12.75000, 2.105305
12.77000, 2.391701
12.79000, 3.723497
12.81000, 3.147623
12.83000, 1.854838
12.85000, 0.6822320
12.87000, 1.153216
12.89000, 1.079671
12.91000, 1.397367
12.93000, 1.587222
12.95000, 1.068266
12.97000, 0.3257450
12.99000, 0.7796500
13.01000, 0.6246760
13.03000, 0.3328020
13.05000, 0.1738250
13.07000, 0.2890180
13.09000, 1.640232
13.11000, 5.6885999E-02
13.13000, 1.118436
13.15000, 2.971319
13.17000, 2.775065
13.19000, 3.334660
13.21000, 4.288918
13.23000, 3.048721
13.25000, 1.746620
13.27000, 1.572272
13.29000, 0.7965280
13.31000, 1.360631
13.33000, 1.486572
13.35000, 1.127017
13.37000, 1.259035
13.39000, 1.102797
13.41000, 1.902775
13.43000, 2.847680
13.45000, 3.302297
13.47000, 4.256519
13.49000, 4.622705
13.51000, 4.445448
13.53000, 2.742881
13.55000, 3.104898
13.57000, 3.294342
13.59000, 1.358254
13.61000, 1.756969
13.63000, 2.496922
13.65000, 0.6308790
13.67000, 0.7917570
13.69000, 0.2809100
13.71000, 0.9073100
13.73000, 0.9274980
13.75000, 1.586094
13.77000, 1.953804
13.79000, 1.681517
13.81000, 1.674330
13.83000, 3.473541
13.85000, 2.927455
13.87000, 1.858220
13.89000, 1.835035
13.91000, 1.431084
13.93000, 1.845843
13.95000, 2.465762
13.97000, 2.399113
13.99000, 1.909382
14.01000, 1.234933
14.03000, 2.2600000E-03
14.05000, 0.1969630
14.07000, 0.2236870
14.09000, 0.4626180
14.11000, 1.621510
14.13000, 2.288659
14.15000, 2.845594
14.17000, 2.452848
14.19000, 0.8548260
14.21000, 1.699015
14.23000, 2.666903
14.25000, 2.065882
14.27000, 1.833692
14.29000, 2.090040
14.31000, 2.946590
14.33000, 4.867414
14.35000, 6.277089
14.37000, 6.010350
14.39000, 3.456193
14.41000, 2.166689
14.43000, 3.710221
14.45000, 4.351133
14.47000, 3.929463
14.49000, 3.135149
14.51000, 2.225962
14.53000, 3.092452
14.55000, 3.775813
14.57000, 3.514504
14.59000, 3.497953
14.61000, 2.647347
14.63000, 2.382587
14.65000, 1.911134
14.67000, 1.966587
14.69000, 2.591350
14.71000, 3.626518
14.73000, 5.055836
14.75000, 6.216856
14.77000, 6.246868
14.79000, 6.196734
14.81000, 5.891904
14.83000, 6.868459
14.85000, 7.708375
14.87000, 6.809076
14.89000, 4.886784
14.91000, 4.678180
14.93000, 4.393916
14.95000, 5.128705
14.97000, 7.337221
14.99000, 8.383554
15.01000, 9.070590
15.03000, 10.31573
15.05000, 9.235623
15.07000, 9.472816
15.09000, 9.344825
15.11000, 7.270274
15.13000, 6.202690
15.15000, 6.605181
15.17000, 6.450459
15.19000, 5.646792
15.21000, 4.032576
15.23000, 4.134409
15.25000, 4.416591
15.27000, 4.507418
15.29000, 5.527711
15.31000, 5.712500
15.33000, 5.893646
15.35000, 7.271119
15.37000, 6.958231
15.39000, 6.115932
15.41000, 5.890217
15.43000, 5.236854
15.45000, 4.404619
15.47000, 5.074595
15.49000, 4.354420
15.51000, 2.600996
15.53000, 1.053068
15.55000, 2.100657
15.57000, 2.999272
15.59000, 2.428505
15.61000, 4.609542
15.63000, 5.529895
15.65000, 3.311062
15.67000, 2.354254
15.69000, 2.914354
15.71000, 3.491272
15.73000, 2.970196
15.75000, 1.394421
15.77000, 0.5100490
15.79000, 0.2784410
15.81000, 3.4288999E-02
15.83000, 1.083730
15.85000, 1.879768
15.87000, 2.039744
15.89000, 2.078908
15.91000, 2.907523
15.93000, 3.807279
15.95000, 2.553406
15.97000, 0.2946120
15.99000, 1.598256
16.01000, 2.100573
16.03000, 0.5512660
16.05000, 0.7824100
16.07000, 1.439100
16.09000, 2.299825
16.11000, 1.920726
16.13000, 1.920299
16.15000, 2.224444
16.17000, 2.548861
16.19000, 3.098034
16.21000, 3.686184
16.23000, 2.001992
16.25000, 1.652164
16.27000, 2.415091
16.29000, 2.349181
16.31000, 3.076025
16.33000, 3.415723
16.35000, 3.315498
16.37000, 1.886880
16.39000, 1.430586
16.41000, 0.3553520
16.43000, 0.1413870
16.45000, 8.4693998E-02
16.47000, 0.1026770
16.49000, 0.1463030
16.51000, 0.3555490
16.53000, 0.3866670
16.55000, 3.2715000E-02
16.57000, 0.4896340
16.59000, 0.7463450
16.61000, 0.6819290
16.63000, 0.4424110
16.65000, 0.4128850
16.67000, 0.1058910
16.69000, 0.2815090
16.71000, 0.6911820
16.73000, 4.8021998E-02
16.75000, 0.3021280
16.77000, 0.1760980
16.79000, 0.3962040
16.81000, 0.4846650
16.83000, 0.7149600
16.85000, 1.880391
16.87000, 1.624938
16.89000, 1.426905
16.91000, 0.8753800
16.93000, 1.379511
16.95000, 2.041840
16.97000, 1.565184
16.99000, 1.907439
17.01000, 2.129108
17.03000, 1.168790
17.05000, 0.4767580
17.07000, 0.1109830
17.09000, 0.2249920
17.11000, 0.2233140
17.13000, 8.4905997E-02
17.15000, 0.3777550
17.17000, 0.3892260
17.19000, 2.1256000E-02
17.21000, 0.4988090
17.23000, 3.087564
17.25000, 4.443214
17.27000, 3.672196
17.29000, 2.237971
17.31000, 1.524180
17.33000, 1.332384
17.35000, 1.750819
17.37000, 2.410310
17.39000, 1.903284
17.41000, 2.118304
17.43000, 2.209183
17.45000, 1.617121
17.47000, 2.480892
17.49000, 3.394029
17.51000, 3.573271
17.53000, 4.423383
17.55000, 5.138226
17.57000, 5.502855
17.59000, 4.310668
17.61000, 4.136704
17.63000, 4.818300
17.65000, 4.407020
17.67000, 3.880284
17.69000, 4.711906
17.71000, 4.948995
17.73000, 4.615253
17.75000, 3.816593
17.77000, 2.774313
17.79000, 3.684450
17.81000, 5.336245
17.83000, 5.429599
17.85000, 5.991076
17.87000, 6.063406
17.89000, 6.629127
17.91000, 8.241348
17.93000, 10.07833
17.95000, 10.95958
17.97000, 11.22032
17.99000, 11.76183
18.01000, 13.09731
18.03000, 17.54717
18.05000, 22.11210
18.07000, 26.09370
18.09000, 32.28960
18.11000, 40.29557
18.13000, 50.27130
18.15000, 62.04250
18.17000, 75.17138
18.19000, 90.30061
18.21000, 102.2917
18.23000, 112.3284
18.25000, 123.4559
18.27000, 133.3182
18.29000, 139.8522
18.31000, 149.1841
18.33000, 157.4500
18.35000, 161.2084
18.37000, 161.4273
18.39000, 157.9647
18.41000, 149.9759
18.43000, 140.6095
18.45000, 130.0048
18.47000, 118.3505
18.49000, 107.4212
18.51000, 95.88081
18.53000, 81.34604
18.55000, 67.29299
18.57000, 55.91358
18.59000, 46.88108
18.61000, 38.39707
18.63000, 32.62314
18.65000, 27.99191
18.67000, 22.06315
18.69000, 17.38729
18.71000, 16.59331
18.73000, 15.08581
18.75000, 11.84142
18.77000, 10.34471
18.79000, 7.928387
18.81000, 6.129143
18.83000, 6.718081
18.85000, 6.575578
18.87000, 5.629793
18.89000, 4.727179
18.91000, 5.020084
18.93000, 4.565270
18.95000, 3.664632
18.97000, 3.114796
18.99000, 2.032748
19.01000, 2.371061
19.03000, 2.052895
19.05000, 2.279981
19.07000, 3.731907
19.09000, 4.020489
19.11000, 2.698254
19.13000, 1.351018
19.15000, 0.9553360
19.17000, 2.732510
19.19000, 4.621284
19.21000, 4.534862
19.23000, 2.486707
19.25000, 1.612484
19.27000, 2.315345
19.29000, 2.256239
19.31000, 3.074014
19.33000, 3.662644
19.35000, 3.410499
19.37000, 3.223325
19.39000, 3.070751
19.41000, 2.275759
19.43000, 1.549001
19.45000, 1.953568
19.47000, 0.9474650
19.49000, 0.1761090
19.51000, 0.5545450
19.53000, 7.6259002E-02
19.55000, 6.2199999E-02
19.57000, 0.2502250
19.59000, 1.155183
19.61000, 0.7449130
19.63000, 1.002702
19.65000, 0.5845080
19.67000, 0.7976710
19.69000, 1.145150
19.71000, 0.8566840
19.73000, 0.1465740
19.75000, 0.4472810
19.77000, 1.0842000E-02
19.79000, 1.211505
19.81000, 0.2506830
19.83000, 0.4347290
19.85000, 0.8210030
19.87000, 0.2634130
19.89000, 1.826910
19.91000, 1.681464
19.93000, 0.3808690
19.95000, 0.5201000
19.97000, 0.5040040
19.99000, 1.070364
20.01000, 1.531805
20.03000, 0.7353860
20.05000, 0.2579970
20.07000, 3.9273001E-02
20.09000, 1.586411
20.11000, 2.670346
20.13000, 2.639468
20.15000, 1.728145
20.17000, 0.5368320
20.19000, 1.160963
20.21000, 1.913842
20.23000, 1.451565
20.25000, 0.3107770
20.27000, 0.4452660
20.29000, 0.2619740
20.31000, 1.577415
20.33000, 2.210119
20.35000, 2.759181
20.37000, 2.327463
20.39000, 2.226832
20.41000, 3.117275
20.43000, 3.477066
20.45000, 1.345130
20.47000, 0.1833590
20.49000, 0.3949920
20.51000, 1.004505
20.53000, 2.164590
20.55000, 2.490344
20.57000, 1.810970
20.59000, 1.877739
20.61000, 3.271421
20.63000, 4.442531
20.65000, 5.497081
20.67000, 5.698325
20.69000, 4.923513
20.71000, 5.470798
20.73000, 6.449682
20.75000, 7.745276
20.77000, 9.751595
20.79000, 10.82045
20.81000, 13.45019
20.83000, 16.24458
20.85000, 17.76236
20.87000, 20.19811
20.89000, 23.89824
20.91000, 29.71217
20.93000, 36.47673
20.95000, 41.25849
20.97000, 45.65710
20.99000, 52.18637
21.01000, 57.93023
21.03000, 63.76007
21.05000, 70.10447
21.07000, 76.09298
21.09000, 81.17738
21.11000, 84.60065
21.13000, 86.54881
21.15000, 84.37083
21.17000, 83.45877
21.19000, 84.45956
21.21000, 81.75632
21.23000, 77.30908
21.25000, 73.15086
21.27000, 66.33398
21.29000, 57.91895
21.31000, 50.94817
21.33000, 46.16042
21.35000, 42.39249
21.37000, 38.62670
21.39000, 34.18290
21.41000, 28.73221
21.43000, 25.62131
21.45000, 22.46560
21.47000, 19.16715
21.49000, 15.58997
21.51000, 13.27849
21.53000, 11.59414
21.55000, 9.153862
21.57000, 7.573296
21.59000, 7.249962
21.61000, 6.242569
21.63000, 6.170220
21.65000, 6.701881
21.67000, 6.471839
21.69000, 5.860876
21.71000, 5.039583
21.73000, 3.889864
21.75000, 2.928774
21.77000, 3.060938
21.79000, 2.494529
21.81000, 1.727419
21.83000, 2.842923
21.85000, 3.610933
21.87000, 2.729687
21.89000, 1.730355
21.91000, 1.282574
21.93000, 1.115877
21.95000, 1.320603
21.97000, 0.7187600
21.99000, 1.438215
22.01000, 2.228953
22.03000, 0.6629350
22.05000, 0.6795560
22.07000, 0.4902610
22.09000, 0.1466940
22.11000, 0.4865720
22.13000, 0.8509950
22.15000, 0.1531580
22.17000, 0.7664310
22.19000, 1.533856
22.21000, 1.672241
22.23000, 2.241367
22.25000, 1.616750
22.27000, 1.735562
22.29000, 3.029983
22.31000, 2.224336
22.33000, 0.3037330
22.35000, 0.1271430
22.37000, 3.4049999E-02
22.39000, 0.9306470
22.41000, 1.183224
22.43000, 1.223292
22.45000, 0.7382930
22.47000, 1.183731
22.49000, 1.030007
22.51000, 0.1046100
22.53000, 0.1959200
22.55000, 1.641985
22.57000, 1.672218
22.59000, 1.338353
22.61000, 0.7132370
22.63000, 1.124327
22.65000, 2.930197
22.67000, 3.733361
22.69000, 1.784428
22.71000, 0.6168020
22.73000, 0.1840270
22.75000, 0.5023250
22.77000, 0.7145870
22.79000, 1.867866
22.81000, 2.668173
22.83000, 2.655103
22.85000, 2.142951
22.87000, 0.6102330
22.89000, 0.8268650
22.91000, 3.571615
22.93000, 4.396699
22.95000, 3.166567
22.97000, 2.035290
22.99000, 0.4023710
23.01000, 0.3085820
23.03000, 0.2063110
23.05000, 0.3471440
23.07000, 0.3249820
23.09000, 0.3979310
23.11000, 0.4601020
23.13000, 7.6759998E-03
23.15000, 0.9007190
23.17000, 0.1026440
23.19000, 0.3721980
23.21000, 0.3465290
23.23000, 9.4366997E-02
23.25000, 0.4944410
23.27000, 4.9587000E-02
23.29000, 0.5228780
23.31000, 1.897383
23.33000, 2.008403
23.35000, 1.977595
23.37000, 1.749807
23.39000, 1.547608
23.41000, 2.654418
23.43000, 3.077029
23.45000, 3.047257
23.47000, 3.798154
23.49000, 2.884974
23.51000, 2.247847
23.53000, 2.429671
23.55000, 1.598398
23.57000, 1.814156
23.59000, 3.178649
23.61000, 3.607760
23.63000, 4.264585
23.65000, 5.664527
23.67000, 5.174487
23.69000, 3.859968
23.71000, 4.053261
23.73000, 4.282370
23.75000, 3.664398
23.77000, 3.603935
23.79000, 3.569495
23.81000, 3.916862
23.83000, 3.578041
23.85000, 3.578860
23.87000, 3.094983
23.89000, 2.859002
23.91000, 3.337030
23.93000, 3.749689
23.95000, 2.303094
23.97000, 2.812890
23.99000, 3.314088
24.01000, 1.680475
24.03000, 1.509160
24.05000, 1.088738
24.07000, 0.1712920
24.09000, 0.2970950
24.11000, 0.2322270
24.13000, 1.8304000E-02
24.15000, 0.1279320
24.17000, 1.718077
24.19000, 2.566515
24.21000, 3.609743
24.23000, 4.497449
24.25000, 3.711372
24.27000, 3.689380
24.29000, 4.174412
24.31000, 2.818805
24.33000, 1.474052
24.35000, 0.8122280
24.37000, 0.5106660
24.39000, 0.2732150
24.41000, 8.3389999E-03
24.43000, 0.2072830
24.45000, 0.2014920
24.47000, 1.870763
24.49000, 3.442912
24.51000, 2.349043
24.53000, 1.965408
24.55000, 2.950402
24.57000, 2.849009
24.59000, 3.308092
24.61000, 2.996478
24.63000, 2.149931
24.65000, 1.663554
24.67000, 1.593375
24.69000, 0.3046830
24.71000, 0.3793720
24.73000, 0.3193840
24.75000, 9.8548003E-02
24.77000, 0.3104460
24.79000, 0.9967060
24.81000, 0.4294540
24.83000, 0.5586960
24.85000, 1.875941
24.87000, 2.351217
24.89000, 2.602686
24.91000, 1.804607
24.93000, 0.4183110
24.95000, 8.8450998E-02
24.97000, 0.4297560
24.99000, 3.7789999E-03
25.01000, 0.5029100
25.03000, 0.2945960
25.05000, 0.6384150
25.07000, 1.206904
25.09000, 0.7712920
25.11000, 0.9791040
25.13000, 4.475279
25.15000, 7.827346
25.17000, 5.664901
25.19000, 4.284140
25.21000, 3.420965
25.23000, 1.928277
25.25000, 1.891821
25.27000, 3.233756
25.29000, 2.232255
25.31000, 1.310229
25.33000, 0.3516000
25.35000, 0.1402630
25.37000, 0.6669970
25.39000, 2.517282
25.41000, 3.503819
25.43000, 2.711511
25.45000, 2.025806
25.47000, 2.130512
25.49000, 2.279885
25.51000, 2.060615
25.53000, 1.110704
25.55000, 0.1968390
25.57000, 0.1481460
25.59000, 1.169837
25.61000, 3.419662
25.63000, 3.764480
25.65000, 3.358701
25.67000, 4.377306
25.69000, 3.225996
25.71000, 1.323218
25.73000, 0.3189520
25.75000, 1.269583
25.77000, 1.929026
25.79000, 1.144160
25.81000, 0.3465420
25.83000, 0.9726810
25.85000, 2.286294
25.87000, 3.678822
25.89000, 3.585286
25.91000, 1.539013
25.93000, 0.8589590
25.95000, 1.678424
25.97000, 2.468557
25.99000, 2.535005
26.01000, 2.841962
26.03000, 2.714122
26.05000, 2.155588
26.07000, 2.626062
26.09000, 3.501340
26.11000, 4.008912
26.13000, 3.442152
26.15000, 3.521211
26.17000, 4.695782
26.19000, 5.548869
26.21000, 4.601674
26.23000, 3.334837
26.25000, 3.025141
26.27000, 3.881703
26.29000, 6.255284
26.31000, 7.391454
26.33000, 7.551485
26.35000, 6.212520
26.37000, 4.311981
26.39000, 3.836359
26.41000, 4.356459
26.43000, 4.447694
26.45000, 5.057955
26.47000, 3.936782
26.49000, 2.353488
26.51000, 0.4678010
26.53000, 0.1671920
26.55000, 0.6472560
26.57000, 2.043717
26.59000, 1.870119
26.61000, 0.3901960
26.63000, 0.1785960
26.65000, 1.635312
26.67000, 0.6994780
26.69000, 9.8849997E-02
26.71000, 0.1040220
26.73000, 1.022640
26.75000, 3.006832
26.77000, 3.945720
26.79000, 2.599118
26.81000, 1.134404
26.83000, 1.294928
26.85000, 1.910556
26.87000, 2.690080
26.89000, 3.317255
26.91000, 1.707718
26.93000, 0.8692630
26.95000, 0.6648210
26.97000, 2.226652
26.99000, 2.562389
27.01000, 1.208736
27.03000, 3.305674
27.05000, 4.451093
27.07000, 3.168688
27.09000, 2.611765
27.11000, 2.230755
27.13000, 1.240520
27.15000, 0.2266490
27.17000, 0.7833520
27.19000, 2.714908
27.21000, 5.791644
27.23000, 6.270397
27.25000, 3.979356
27.27000, 2.719820
27.29000, 2.326892
27.31000, 1.019878
27.33000, 0.5571350
27.35000, 0.9085030
27.37000, 0.9349810
27.39000, 2.893146
27.41000, 2.948861
27.43000, 0.9070630
27.45000, 0.2863210
27.47000, 0.4088390
27.49000, 0.9920860
27.51000, 0.2232820
27.53000, 0.3741310
27.55000, 0.3489620
27.57000, 1.685222
27.59000, 2.081143
27.61000, 0.3985260
27.63000, 5.6917999E-02
27.65000, 0.3539340
27.67000, 1.004901
27.69000, 6.5394998E-02
27.71000, 0.1457730
27.73000, 0.1119080
27.75000, 0.8093200
27.77000, 1.982049
27.79000, 2.007326
27.81000, 0.2919860
27.83000, 0.1394270
27.85000, 0.3067730
27.87000, 1.493145
27.89000, 1.133134
27.91000, 0.4494580
27.93000, 0.1360120
27.95000, 0.1104380
27.97000, 0.2585990
27.99000, 0.2559480
28.01000, 0.5659570
28.03000, 0.8464010
28.05000, 0.4924680
28.07000, 0.3703420
28.09000, 1.113431
28.11000, 0.1926560
28.13000, 1.209401
28.15000, 1.284588
28.17000, 0.2676500
28.19000, 9.2312001E-02
28.21000, 0.1784940
28.23000, 0.3646050
28.25000, 0.1504650
28.27000, 8.0035999E-02
28.29000, 0.4516480
28.31000, 0.2507600
28.33000, 1.4452000E-02
28.35000, 2.2458000E-02
28.37000, 0.8384360
28.39000, 1.028236
28.41000, 1.600331
28.43000, 2.100541
28.45000, 3.236988
28.47000, 3.594008
28.49000, 3.517994
28.51000, 4.105349
28.53000, 4.040157
28.55000, 3.410524
28.57000, 3.707335
28.59000, 2.630980
28.61000, 0.4225980
28.63000, 0.2776510
28.65000, 0.2721530
28.67000, 0.1624150
28.69000, 0.1578370
28.71000, 0.7724530
28.73000, 0.2910950
28.75000, 0.9031300
28.77000, 0.7304350
28.79000, 2.752092
28.81000, 3.290748
28.83000, 3.197334
28.85000, 2.598857
28.87000, 0.9141310
28.89000, 1.162869
28.91000, 0.5238370
28.93000, 0.6144530
28.95000, 0.3724080
28.97000, 2.162971
28.99000, 3.027919
29.01000, 2.959482
29.03000, 2.503412
29.05000, 1.486577
29.07000, 1.847615
29.09000, 2.154150
29.11000, 1.046867
29.13000, 1.543225
29.15000, 2.051623
29.17000, 2.302866
29.19000, 2.476099
29.21000, 2.695853
29.23000, 2.553860
29.25000, 0.9126930
29.27000, 0.4031430
29.29000, 1.779050
29.31000, 1.230323
29.33000, 0.7290320
29.35000, 5.1435001E-02
29.37000, 0.8514760
29.39000, 0.9922980
29.41000, 0.7894580
29.43000, 2.234676
29.45000, 1.522773
29.47000, 2.433232
29.49000, 3.372415
29.51000, 2.657810
29.53000, 4.250313
29.55000, 5.446867
29.57000, 4.899712
29.59000, 6.267514
29.61000, 7.988487
29.63000, 9.826620
29.65000, 10.06149
29.67000, 11.66146
29.69000, 11.33574
29.71000, 10.79997
29.73000, 11.46448
29.75000, 10.60721
29.77000, 9.568661
29.79000, 8.942680
29.81000, 10.20693
29.83000, 12.73383
29.85000, 18.64690
29.87000, 25.30688
29.89000, 29.65734
29.91000, 36.54670
29.93000, 43.24947
29.95000, 49.36023
29.97000, 57.26942
29.99000, 70.80441
30.01000, 77.36983
30.03000, 82.96833
30.05000, 91.29427
30.07000, 97.71326
30.09000, 103.2533
30.11000, 105.9807
30.13000, 102.5191
30.15000, 100.8780
30.17000, 100.0025
30.19000, 99.12142
30.21000, 98.74761
30.23000, 98.75855
30.25000, 97.75541
30.27000, 95.50620
30.29000, 92.76546
30.31000, 80.73379
30.33000, 71.97115
30.35000, 69.71708
30.37000, 66.02457
30.39000, 59.38445
30.41000, 53.49363
30.43000, 48.84504
30.45000, 38.74425
30.47000, 34.67164
30.49000, 29.28695
30.51000, 20.10623
30.53000, 15.88651
30.55000, 13.40139
30.57000, 10.69881
30.59000, 10.00357
30.61000, 11.81506
30.63000, 11.72814
30.65000, 11.67052
30.67000, 9.761494
30.69000, 6.808252
30.71000, 5.909646
30.73000, 4.926772
30.75000, 4.490480
30.77000, 5.543648
30.79000, 6.152848
30.81000, 2.702340
30.83000, 0.7146240
30.85000, 0.7391820
30.87000, 1.335507
30.89000, 0.1808760
30.91000, 3.587458
30.93000, 4.649446
30.95000, 4.658695
30.97000, 6.278328
30.99000, 5.903293
31.01000, 6.000967
31.03000, 4.946111
31.05000, 4.836508
31.07000, 8.417239
31.09000, 8.902814
31.11000, 8.263926
31.13000, 6.914039
31.15000, 3.786784
31.17000, 1.419258
31.19000, 0.3917200
31.21000, 1.710390
31.23000, 2.876500
31.25000, 1.543021
31.27000, 0.1734410
31.29000, 0.2366320
31.31000, 1.638806
31.33000, 2.525125
31.35000, 2.634022
31.37000, 4.218051
31.39000, 4.966361
31.41000, 3.963934
31.43000, 2.353224
31.45000, 1.381493
31.47000, 1.647207
31.49000, 0.5446810
31.51000, 0.5822880
31.53000, 1.397276
31.55000, 0.4426370
31.57000, 0.7966680
31.59000, 0.8314260
31.61000, 3.018294
31.63000, 4.647079
31.65000, 5.328813
31.67000, 5.101419
31.69000, 2.179515
31.71000, 1.339299
31.73000, 2.595005
31.75000, 2.217071
31.77000, 1.308144
31.79000, 2.547241
31.81000, 5.491101
31.83000, 5.829206
31.85000, 5.108874
31.87000, 4.003812
31.89000, 3.692874
31.91000, 1.731298
31.93000, 3.123944
31.95000, 4.490088
31.97000, 5.608487
31.99000, 5.737062
32.01000, 5.238920
32.03000, 5.640761
32.05000, 5.071918
32.07000, 4.080505
32.09000, 5.325605
32.11000, 5.445199
32.13000, 6.612233
32.15000, 6.847588
32.17000, 7.517184
32.19000, 8.759102
32.21000, 7.672936
32.23000, 6.534467
32.25000, 5.518200
32.27000, 5.880058
32.29000, 6.087110
32.31000, 7.580403
32.33000, 9.138062
32.35000, 11.72986
32.37000, 12.69415
32.39000, 9.555918
32.41000, 6.365215
32.43000, 4.866541
32.45000, 5.206330
32.47000, 7.038809
32.49000, 7.768811
32.51000, 8.141786
32.53000, 8.140203
32.55000, 7.561734
32.57000, 7.409397
32.59000, 8.676109
32.61000, 8.198151
32.63000, 7.016009
32.65000, 7.977141
32.67000, 8.692051
32.69000, 7.654541
32.71000, 7.946955
32.73000, 8.595464
32.75000, 10.64621
32.77000, 10.24638
32.79000, 7.720294
32.81000, 9.114984
32.83000, 9.574356
32.85000, 10.33047
32.87000, 9.371574
32.89000, 9.433180
32.91000, 9.432278
32.93000, 7.907391
32.95000, 6.980310
32.97000, 4.983689
32.99000, 3.403517
33.01000, 2.026236
33.03000, 3.519626
33.05000, 4.995759
33.07000, 5.127644
33.09000, 5.064577
33.11000, 6.204210
33.13000, 5.267170
33.15000, 5.333005
33.17000, 6.330983
33.19000, 5.223577
33.21000, 3.683364
33.23000, 0.5552710
33.25000, 0.5688140
33.27000, 0.2697070
33.29000, 0.5605340
33.31000, 0.2789880
33.33000, 2.007603
33.35000, 2.374523
33.37000, 0.5275970
33.39000, 8.2975999E-02
33.41000, 1.963139
33.43000, 2.112071
33.45000, 2.182256
33.47000, 2.996194
33.49000, 3.853995
33.51000, 2.046333
33.53000, 1.641595
33.55000, 2.980522
33.57000, 2.032910
33.59000, 2.978133
33.61000, 4.112420
33.63000, 3.040597
33.65000, 0.1876490
33.67000, 0.8500930
33.69000, 0.6376780
33.71000, 0.1176330
33.73000, 1.271223
33.75000, 2.149993
33.77000, 2.420462
33.79000, 2.215873
33.81000, 0.6874030
33.83000, 8.9704998E-02
33.85000, 2.9420001E-03
33.87000, 0.3810850
33.89000, 0.2588790
33.91000, 1.948638
33.93000, 1.938584
33.95000, 0.3162660
33.97000, 0.3476240
33.99000, 1.155532
34.01000, 0.1629270
34.03000, 2.651697
34.05000, 5.844156
34.07000, 6.217515
34.09000, 4.507150
34.11000, 3.920987
34.13000, 2.470207
34.15000, 2.203980
34.17000, 5.186707
34.19000, 6.329748
34.21000, 5.416093
34.23000, 5.612035
34.25000, 3.168886
34.27000, 0.2147070
34.29000, 0.4941450
34.31000, 1.291685
34.33000, 0.4024260
34.35000, 0.2373450
34.37000, 1.066007
34.39000, 0.2227750
34.41000, 0.1820520
34.43000, 0.7767380
34.45000, 1.504264
34.47000, 0.6875580
34.49000, 0.2916490
34.51000, 0.6242600
34.53000, 1.188221
34.55000, 2.9680001E-02
34.57000, 0.8671410
34.59000, 1.116573
34.61000, 0.2646010
34.63000, 0.5802530
34.65000, 0.4958720
34.67000, 1.370797
34.69000, 1.198663
34.71000, 0.7064270
34.73000, 2.0365000E-02
34.75000, 0.7090830
34.77000, 0.4529690
34.79000, 0.8311170
34.81000, 1.009369
34.83000, 2.806762
34.85000, 1.679462
34.87000, 1.034362
34.89000, 1.019695
34.91000, 0.6417100
34.93000, 0.1589710
34.95000, 4.2447001E-02
34.97000, 1.590716
34.99000, 1.878675
35.01000, 6.5132998E-02
35.03000, 0.3464180
35.05000, 1.093457
35.07000, 0.1406470
35.09000, 3.918709
35.11000, 9.134368
35.13000, 9.633098
35.15000, 11.12865
35.17000, 16.38710
35.19000, 18.96507
35.21000, 19.69286
35.23000, 21.45067
35.25000, 23.19304
35.27000, 28.19447
35.29000, 31.29348
35.31000, 36.19957
35.33000, 43.00776
35.35000, 43.63362
35.37000, 46.06882
35.39000, 45.11715
35.41000, 46.06437
35.43000, 45.47015
35.45000, 39.81349
35.47000, 37.67923
35.49000, 35.34230
35.51000, 33.42725
35.53000, 28.48437
35.55000, 19.86081
35.57000, 10.62748
35.59000, 7.647583
35.61000, 5.884554
35.63000, 2.952508
35.65000, 0.0000000E+00
##END=



