##NAMES=Pyrite
##RRUFFID=R080030
##IDEAL CHEMISTRY=Fe^2+^(S_2_)^2-^
##LOCALITY=Schaft 209, Aue, Niederschlema, Erzgebirge, Saxony, Germany
##OWNER=RRUFF
##SOURCE=William W. Pinch
##DESCRIPTION=Dark-bronze and blue, tarnished pseudohexagonal prisms; bright grey when a fresh surface is exposed. Associated with wire silver. These crystals were labeled argentopyrite, but are pseudomorphs.
##DIFFRACTION SAMPLE DESCRIPTION=Powder, using Mo radiation
##STATUS=The identification of this mineral has been confirmed by X-ray diffraction and chemical analysis
##URL=rruff.info/R080030
##MEASURED CHEMISTRY=Fe_1.04_Ag_0.01_As_0.08_S_2_
##CELL PARAMETERS=a: 5.4399(9) b: 5.4399(9) c: 5.4399(9) alpha: 90 beta: 90 gamma: 90 volume: 160.98(8) crystal system: cubic
4.880000, 0.0000000E+00
4.900000, 0.3690300
4.920000, 4.7469001E-02
4.940000, 2.384513
4.960000, 5.931718
4.980000, 5.307565
5.000000, 6.676919
5.020000, 6.404534
5.040000, 5.812160
5.060000, 7.238445
5.080000, 7.028124
5.100000, 7.569685
5.120000, 6.548614
5.140000, 3.223356
5.160000, 3.813715
5.180000, 3.407341
5.200000, 2.029148
5.220000, 4.239054
5.240000, 5.818148
5.260000, 7.208188
5.280000, 11.86877
5.300000, 12.96549
5.320000, 13.07537
5.340000, 11.98498
5.360000, 10.54413
5.380000, 8.189356
5.400000, 4.738052
5.420000, 4.671150
5.440000, 4.700842
5.460000, 4.2030001E-03
5.480000, 0.9008580
5.500000, 0.3343920
5.520000, 1.681606
5.540000, 3.293790
5.560000, 4.567231
5.580000, 4.367503
5.600000, 2.027248
5.620000, 3.153899
5.640000, 7.480520
5.660000, 13.09394
5.680000, 11.55590
5.700000, 8.017046
5.720000, 6.220286
5.740000, 3.799668
5.760000, 0.5924250
5.780000, 7.6430002E-03
5.800000, 3.670117
5.820000, 5.587540
5.840000, 9.126736
5.860000, 13.19797
5.880000, 14.37207
5.900000, 12.83633
5.920000, 10.44341
5.940000, 9.533607
5.960000, 7.668652
5.980000, 2.973418
6.000000, 0.4679150
6.020000, 0.2150930
6.040000, 1.939406
6.060000, 2.804532
6.080000, 3.130738
6.100000, 3.012238
6.120000, 2.061320
6.140000, 0.7202660
6.160000, 4.540079
6.180000, 7.444011
6.200000, 10.55849
6.220000, 11.22791
6.240000, 10.19330
6.260000, 10.11188
6.280000, 11.75340
6.300000, 12.94385
6.320000, 11.30620
6.340000, 7.806734
6.360000, 5.177994
6.380000, 2.039557
6.400000, 1.162484
6.420000, 2.818970
6.440000, 4.769569
6.460000, 6.082433
6.480000, 8.785709
6.500000, 11.23097
6.520000, 11.54308
6.540000, 8.410009
6.560000, 7.394709
6.580000, 7.256654
6.600000, 6.949793
6.620000, 7.355369
6.640000, 5.317286
6.660000, 5.156225
6.680000, 4.870924
6.700000, 5.215960
6.720000, 8.483589
6.740000, 7.825612
6.760000, 6.620588
6.780000, 7.251381
6.800000, 6.887959
6.820000, 2.370345
6.840000, 1.885777
6.860000, 0.6383530
6.880000, 1.523119
6.900000, 3.326815
6.920000, 3.695489
6.940000, 5.009013
6.960000, 7.820711
6.980000, 6.044263
7.000000, 3.897821
7.020000, 3.540561
7.040000, 3.071667
7.060000, 0.7513200
7.080000, 0.3071510
7.100000, 0.6653760
7.120000, 1.274227
7.140000, 0.9627710
7.160000, 2.300410
7.180000, 0.8358320
7.200000, 1.442636
7.220000, 3.284591
7.240000, 4.610621
7.260000, 2.952830
7.280000, 3.760043
7.300000, 4.108759
7.320000, 5.249115
7.340000, 8.511284
7.360000, 7.241712
7.380000, 4.577056
7.400000, 3.341245
7.420000, 3.579042
7.440000, 4.642036
7.460000, 4.605192
7.480000, 5.330429
7.500000, 6.556692
7.520000, 6.536889
7.540000, 4.166977
7.560000, 1.864933
7.580000, 0.6065380
7.600000, 0.1284950
7.620000, 0.9921700
7.640000, 3.762151
7.660000, 3.400890
7.680000, 0.9723830
7.700000, 1.234602
7.720000, 1.621974
7.740000, 3.159024
7.760000, 4.563773
7.780000, 5.492123
7.800000, 6.046049
7.820000, 4.295534
7.840000, 0.1875240
7.860000, 0.8202330
7.880000, 0.6767930
7.900000, 0.3551350
7.920000, 0.1860180
7.940000, 7.7306002E-02
7.960000, 0.5399560
7.980000, 0.9750180
8.000000, 0.7004660
8.020000, 2.996366
8.040000, 3.088687
8.060000, 1.765387
8.080000, 3.083496
8.100000, 3.192013
8.120000, 2.424941
8.140000, 3.113299
8.160000, 1.661393
8.180000, 0.9003000
8.200000, 0.2151640
8.220000, 0.9227940
8.240000, 1.175788
8.260000, 1.554042
8.280000, 0.2993450
8.300000, 0.2899910
8.320000, 1.777884
8.340000, 3.156279
8.360000, 5.148826
8.380000, 3.972390
8.400000, 2.257827
8.420000, 1.476709
8.440000, 1.365190
8.460000, 2.239190
8.480000, 3.529717
8.500000, 2.629765
8.520000, 2.362339
8.540000, 3.821431
8.560000, 6.364037
8.580000, 5.765965
8.600000, 4.914437
8.620000, 4.917410
8.640000, 5.127794
8.660000, 3.294766
8.680000, 2.096328
8.700000, 0.3994240
8.720000, 0.2659010
8.740000, 1.604672
8.760000, 3.673589
8.780000, 4.149850
8.800000, 2.003136
8.820000, 0.3067170
8.840000, 1.478050
8.860000, 1.278244
8.880000, 0.2180570
8.900000, 0.8971220
8.920000, 0.4826790
8.940000, 0.1177600
8.960000, 0.8791680
8.980000, 1.646047
9.000000, 0.1276050
9.020000, 2.337747
9.040000, 3.590279
9.060000, 2.019376
9.080000, 1.380596
9.100000, 2.894085
9.120000, 2.222461
9.140000, 1.294309
9.160000, 0.1015770
9.180000, 0.2163090
9.200000, 0.4601390
9.220000, 2.155558
9.240000, 1.364565
9.260000, 3.4435000E-02
9.280000, 9.3144000E-02
9.300000, 0.6580440
9.320000, 5.1674999E-02
9.340000, 0.2050720
9.360000, 0.1670110
9.380000, 1.301522
9.400000, 2.560859
9.420000, 3.489857
9.440000, 4.157519
9.460000, 4.791941
9.480000, 6.349787
9.500000, 5.701088
9.520000, 3.550162
9.540000, 3.008170
9.560000, 2.575970
9.580000, 3.288507
9.600000, 4.841800
9.620000, 6.938850
9.640000, 8.568636
9.660000, 8.306165
9.680000, 8.911439
9.700000, 9.578418
9.720000, 9.221143
9.740000, 9.453816
9.760000, 12.04715
9.780000, 12.40657
9.800000, 11.91540
9.820000, 13.99775
9.840000, 15.31876
9.860000, 15.20044
9.880000, 14.57677
9.900000, 12.03677
9.920000, 8.983429
9.940000, 8.359744
9.960000, 8.291713
9.980000, 8.202786
10.00000, 8.555520
10.02000, 7.733473
10.04000, 7.132085
10.06000, 5.454354
10.08000, 4.013288
10.10000, 2.771887
10.12000, 1.495150
10.14000, 1.873060
10.16000, 2.005653
10.18000, 1.149902
10.20000, 1.623818
10.22000, 3.164406
10.24000, 1.864159
10.26000, 1.389193
10.28000, 2.761071
10.30000, 4.075825
10.32000, 4.281604
10.34000, 4.103246
10.36000, 4.138965
10.38000, 4.268121
10.40000, 3.633086
10.42000, 3.214636
10.44000, 3.591868
10.46000, 4.755795
10.48000, 6.359416
10.50000, 8.260731
10.52000, 6.810744
10.54000, 3.568461
10.56000, 2.061983
10.58000, 0.4270250
10.60000, 0.2091840
10.62000, 1.773222
10.64000, 2.605445
10.66000, 2.291904
10.68000, 2.542509
10.70000, 3.906907
10.72000, 2.278774
10.74000, 1.2371000E-02
10.76000, 0.4173090
10.78000, 1.018505
10.80000, 1.998071
10.82000, 2.672362
10.84000, 5.013423
10.86000, 6.270215
10.88000, 4.514760
10.90000, 3.926064
10.92000, 3.714104
10.94000, 3.255884
10.96000, 4.723432
10.98000, 6.931727
11.00000, 5.409780
11.02000, 3.094151
11.04000, 4.736208
11.06000, 4.912324
11.08000, 3.205234
11.10000, 2.876775
11.12000, 2.098617
11.14000, 0.7119430
11.16000, 0.8381960
11.18000, 0.3032050
11.20000, 0.1657860
11.22000, 0.4676060
11.24000, 2.8549001E-02
11.26000, 0.6191980
11.28000, 0.8867170
11.30000, 0.6076650
11.32000, 0.4508870
11.34000, 1.569095
11.36000, 3.403710
11.38000, 5.661677
11.40000, 7.274396
11.42000, 6.771186
11.44000, 6.039814
11.46000, 5.349615
11.48000, 6.405851
11.50000, 7.438573
11.52000, 8.086731
11.54000, 9.041219
11.56000, 10.84142
11.58000, 12.87202
11.60000, 16.38191
11.62000, 18.51461
11.64000, 20.35903
11.66000, 22.58279
11.68000, 22.78083
11.70000, 23.94549
11.72000, 25.68894
11.74000, 26.87944
11.76000, 27.02251
11.78000, 26.30939
11.80000, 27.94008
11.82000, 29.24060
11.84000, 27.40294
11.86000, 26.07009
11.88000, 23.78008
11.90000, 20.48113
11.92000, 19.82073
11.94000, 20.57105
11.96000, 18.60802
11.98000, 14.21481
12.00000, 13.32344
12.02000, 11.69685
12.04000, 8.533077
12.06000, 7.328124
12.08000, 5.993956
12.10000, 4.845433
12.12000, 3.943913
12.14000, 2.277160
12.16000, 0.7687880
12.18000, 0.1344790
12.20000, 1.041748
12.22000, 3.781605
12.24000, 4.412251
12.26000, 4.920693
12.28000, 4.739938
12.30000, 4.349974
12.32000, 4.017795
12.34000, 2.388411
12.36000, 2.297816
12.38000, 2.405025
12.40000, 2.525139
12.42000, 1.767045
12.44000, 2.269724
12.46000, 2.898202
12.48000, 2.436443
12.50000, 3.246476
12.52000, 3.105282
12.54000, 2.275861
12.56000, 1.245213
12.58000, 1.693338
12.60000, 1.821235
12.62000, 1.352907
12.64000, 1.957383
12.66000, 3.405955
12.68000, 4.263560
12.70000, 5.167253
12.72000, 4.896845
12.74000, 7.610271
12.76000, 11.60766
12.78000, 16.16082
12.80000, 21.87475
12.82000, 29.34641
12.84000, 36.65180
12.86000, 43.64595
12.88000, 50.00481
12.90000, 57.22344
12.92000, 64.64380
12.94000, 72.45789
12.96000, 78.14969
12.98000, 82.37691
13.00000, 82.96088
13.02000, 82.87027
13.04000, 80.30482
13.06000, 78.34355
13.08000, 77.00425
13.10000, 72.78172
13.12000, 66.90192
13.14000, 60.59418
13.16000, 53.65062
13.18000, 44.87995
13.20000, 36.41306
13.22000, 28.66400
13.24000, 21.79378
13.26000, 17.55139
13.28000, 14.62171
13.30000, 10.23772
13.32000, 7.258438
13.34000, 5.239835
13.36000, 3.184928
13.38000, 0.3600170
13.40000, 0.4968430
13.42000, 0.3477240
13.44000, 0.3706650
13.46000, 0.1496680
13.48000, 0.3914510
13.50000, 0.5359000
13.52000, 3.930605
13.54000, 5.224352
13.56000, 4.078658
13.58000, 3.118613
13.60000, 2.024002
13.62000, 1.359118
13.64000, 0.4084760
13.66000, 1.267172
13.68000, 2.586062
13.70000, 3.325912
13.72000, 4.316460
13.74000, 3.272171
13.76000, 3.181969
13.78000, 4.265142
13.80000, 4.173528
13.82000, 2.621631
13.84000, 3.263176
13.86000, 3.089174
13.88000, 1.678494
13.90000, 0.9466510
13.92000, 0.8866090
13.94000, 0.8498040
13.96000, 1.621159
13.98000, 1.790192
14.00000, 0.2176570
14.02000, 0.9491720
14.04000, 2.359756
14.06000, 1.941740
14.08000, 2.466030
14.10000, 1.403087
14.12000, 0.7099850
14.14000, 2.179402
14.16000, 1.912145
14.18000, 1.068383
14.20000, 2.808301
14.22000, 4.057773
14.24000, 3.124124
14.26000, 1.819660
14.28000, 1.191666
14.30000, 0.1085510
14.32000, 6.8516999E-02
14.34000, 1.528127
14.36000, 1.813452
14.38000, 1.777456
14.40000, 2.936162
14.42000, 3.705460
14.44000, 2.792729
14.46000, 1.101260
14.48000, 9.2675999E-02
14.50000, 0.9100950
14.52000, 0.1952250
14.54000, 0.9082410
14.56000, 1.152519
14.58000, 1.685591
14.60000, 1.202965
14.62000, 0.2101230
14.64000, 1.664868
14.66000, 4.372023
14.68000, 7.049699
14.70000, 11.00774
14.72000, 13.76710
14.74000, 17.81705
14.76000, 23.86534
14.78000, 31.03092
14.80000, 42.30873
14.82000, 56.08281
14.84000, 73.90116
14.86000, 95.92673
14.88000, 116.8295
14.90000, 138.2186
14.92000, 161.3048
14.94000, 181.6553
14.96000, 200.7600
14.98000, 217.8940
15.00000, 235.9561
15.02000, 251.9573
15.04000, 261.4287
15.06000, 266.6725
15.08000, 268.3424
15.10000, 258.4764
15.12000, 242.1599
15.14000, 223.2183
15.16000, 202.8378
15.18000, 182.6877
15.20000, 161.3016
15.22000, 139.0478
15.24000, 117.4610
15.26000, 96.88750
15.28000, 75.18342
15.30000, 58.56382
15.32000, 47.12873
15.34000, 39.06887
15.36000, 31.75220
15.38000, 25.85688
15.40000, 19.73015
15.42000, 15.06822
15.44000, 11.52926
15.46000, 9.785131
15.48000, 8.107036
15.50000, 5.176364
15.52000, 3.717224
15.54000, 2.132784
15.56000, 1.101549
15.58000, 0.9776940
15.60000, 1.086128
15.62000, 1.714141
15.64000, 2.501616
15.66000, 2.002303
15.68000, 2.977153
15.70000, 3.734621
15.72000, 1.924594
15.74000, 0.3219830
15.76000, 6.7768998E-02
15.78000, 0.6094230
15.80000, 2.346105
15.82000, 4.051734
15.84000, 3.269850
15.86000, 1.582284
15.88000, 0.8782940
15.90000, 0.2055250
15.92000, 0.4102950
15.94000, 0.5852360
15.96000, 1.169308
15.98000, 0.2238350
16.00000, 0.4823190
16.02000, 0.2359020
16.04000, 0.3840780
16.06000, 0.6197770
16.08000, 0.8128900
16.10000, 0.7454080
16.12000, 0.5897700
16.14000, 0.7129500
16.16000, 0.6418410
16.18000, 0.8315180
16.20000, 5.4908998E-02
16.22000, 8.1942998E-02
16.24000, 1.223539
16.26000, 1.365380
16.28000, 1.148154
16.30000, 0.6633370
16.32000, 0.4914680
16.34000, 1.708500
16.36000, 2.590445
16.38000, 0.4971830
16.40000, 1.204754
16.42000, 0.8018040
16.44000, 0.3022670
16.46000, 0.2030160
16.48000, 8.6732998E-02
16.50000, 1.265797
16.52000, 4.459064
16.54000, 8.448127
16.56000, 14.22378
16.58000, 22.25948
16.60000, 30.63697
16.62000, 40.55921
16.64000, 50.60045
16.66000, 60.51150
16.68000, 70.85779
16.70000, 81.80603
16.72000, 94.18105
16.74000, 106.8807
16.76000, 121.9089
16.78000, 131.3919
16.80000, 137.1871
16.82000, 140.9174
16.84000, 143.1896
16.86000, 144.2095
16.88000, 140.1295
16.90000, 132.9165
16.92000, 124.0910
16.94000, 112.0787
16.96000, 97.53153
16.98000, 85.50207
17.00000, 73.54771
17.02000, 59.21631
17.04000, 47.02877
17.06000, 39.96742
17.08000, 33.21888
17.10000, 25.50197
17.12000, 17.57844
17.14000, 11.20194
17.16000, 8.556297
17.18000, 6.394987
17.20000, 4.994187
17.22000, 4.127381
17.24000, 3.924445
17.26000, 4.129108
17.28000, 5.410261
17.30000, 4.819202
17.32000, 6.219502
17.34000, 8.278790
17.36000, 8.739535
17.38000, 9.983952
17.40000, 11.76381
17.42000, 12.62344
17.44000, 12.52343
17.46000, 13.93384
17.48000, 15.32811
17.50000, 15.63741
17.52000, 17.40428
17.54000, 18.45284
17.56000, 18.53750
17.58000, 19.67298
17.60000, 19.47946
17.62000, 17.72984
17.64000, 16.23627
17.66000, 15.42375
17.68000, 14.53029
17.70000, 14.29456
17.72000, 10.64706
17.74000, 8.606277
17.76000, 7.476930
17.78000, 6.455462
17.80000, 5.716805
17.82000, 5.349396
17.84000, 3.722323
17.86000, 2.921549
17.88000, 2.718852
17.90000, 3.563379
17.92000, 4.234964
17.94000, 3.330992
17.96000, 1.728317
17.98000, 1.378237
18.00000, 0.5882690
18.02000, 1.216031
18.04000, 2.686181
18.06000, 5.701778
18.08000, 6.993444
18.10000, 6.959831
18.12000, 8.819027
18.14000, 10.74212
18.16000, 12.51789
18.18000, 16.55400
18.20000, 21.76390
18.22000, 26.27287
18.24000, 32.59777
18.26000, 39.26898
18.28000, 47.83273
18.30000, 57.21654
18.32000, 67.72964
18.34000, 75.28021
18.36000, 83.14718
18.38000, 91.49953
18.40000, 95.69450
18.42000, 98.64153
18.44000, 99.39526
18.46000, 96.76281
18.48000, 93.57269
18.50000, 90.13547
18.52000, 80.48009
18.54000, 72.25340
18.56000, 65.59776
18.58000, 57.37703
18.60000, 48.42515
18.62000, 38.62642
18.64000, 30.06518
18.66000, 23.42777
18.68000, 18.36315
18.70000, 14.89268
18.72000, 12.40840
18.74000, 9.752692
18.76000, 6.434389
18.78000, 4.545366
18.80000, 3.948013
18.82000, 3.985791
18.84000, 4.248705
18.86000, 4.372684
18.88000, 3.373710
18.90000, 1.854157
18.92000, 0.9246350
18.94000, 0.2039780
18.96000, 0.4130960
18.98000, 5.7677001E-02
19.00000, 4.5699000E-02
19.02000, 0.3905530
19.04000, 0.1054030
19.06000, 0.3550200
19.08000, 0.3127090
19.10000, 0.1804590
19.12000, 1.777584
19.14000, 1.573834
19.16000, 0.9930750
19.18000, 1.392680
19.20000, 1.007661
19.22000, 0.2475060
19.24000, 0.3012470
19.26000, 0.3524770
19.28000, 0.1417300
19.30000, 0.5504800
19.32000, 0.7580300
19.34000, 0.1086220
19.36000, 0.4980670
19.38000, 0.6253720
19.40000, 0.4916450
19.42000, 0.4915550
19.44000, 1.150509
19.46000, 0.3568210
19.48000, 0.5697700
19.50000, 0.5075130
19.52000, 0.4944860
19.54000, 1.775490
19.56000, 3.374216
19.58000, 4.457758
19.60000, 3.800742
19.62000, 2.724621
19.64000, 3.150542
19.66000, 4.049673
19.68000, 4.012979
19.70000, 2.796675
19.72000, 2.513435
19.74000, 4.296937
19.76000, 5.368009
19.78000, 5.370833
19.80000, 5.909918
19.82000, 4.760669
19.84000, 3.006611
19.86000, 1.507339
19.88000, 1.512111
19.90000, 3.617088
19.92000, 1.833318
19.94000, 1.219479
19.96000, 2.718728
19.98000, 2.543421
20.00000, 1.484866
20.02000, 0.8283850
20.04000, 0.4088050
20.06000, 0.4448860
20.08000, 0.5340490
20.10000, 0.5711030
20.12000, 1.046675
20.14000, 0.2638220
20.16000, 0.1254760
20.18000, 3.8197000E-02
20.20000, 0.1796320
20.22000, 0.1339120
20.24000, 1.080672
20.26000, 2.794323
20.28000, 2.662496
20.30000, 2.311189
20.32000, 2.021882
20.34000, 1.518763
20.36000, 1.305762
20.38000, 0.3587520
20.40000, 0.2954520
20.42000, 1.677298
20.44000, 1.943460
20.46000, 3.845191
20.48000, 5.116747
20.50000, 5.010644
20.52000, 3.794801
20.54000, 3.642309
20.56000, 3.889690
20.58000, 4.134533
20.60000, 3.644437
20.62000, 3.140918
20.64000, 2.905973
20.66000, 3.051494
20.68000, 4.113089
20.70000, 4.295775
20.72000, 4.289305
20.74000, 3.801728
20.76000, 3.133546
20.78000, 2.708657
20.80000, 2.523264
20.82000, 1.845662
20.84000, 1.275184
20.86000, 6.1193999E-02
20.88000, 0.3034630
20.90000, 2.539587
20.92000, 4.386500
20.94000, 4.578850
20.96000, 4.822604
20.98000, 5.057269
21.00000, 5.440296
21.02000, 8.069632
21.04000, 13.54694
21.06000, 18.72759
21.08000, 23.96141
21.10000, 32.35000
21.12000, 41.40722
21.14000, 50.84310
21.16000, 61.58633
21.18000, 71.55334
21.20000, 83.24957
21.22000, 95.20667
21.24000, 104.6430
21.26000, 111.3835
21.28000, 118.5454
21.30000, 124.9367
21.32000, 127.9900
21.34000, 131.3177
21.36000, 127.8883
21.38000, 118.6068
21.40000, 109.0593
21.42000, 97.88525
21.44000, 85.02572
21.46000, 73.12632
21.48000, 62.30901
21.50000, 55.49736
21.52000, 47.12976
21.54000, 38.52613
21.56000, 30.25456
21.58000, 23.05912
21.60000, 17.07620
21.62000, 11.16614
21.64000, 7.706409
21.66000, 5.445087
21.68000, 2.715293
21.70000, 1.559855
21.72000, 1.947103
21.74000, 3.086571
21.76000, 3.564249
21.78000, 2.722714
21.80000, 1.555406
21.82000, 1.399943
21.84000, 2.284833
21.86000, 2.832844
21.88000, 3.066324
21.90000, 3.002451
21.92000, 2.243044
21.94000, 1.932910
21.96000, 0.3685610
21.98000, 1.088705
22.00000, 1.587470
22.02000, 0.9621610
22.04000, 0.4207750
22.06000, 0.5836000
22.08000, 1.521551
22.10000, 1.195835
22.12000, 0.9060640
22.14000, 1.808139
22.16000, 2.949462
22.18000, 2.466745
22.20000, 0.2303810
22.22000, 6.3445002E-02
22.24000, 0.2179230
22.26000, 7.7843003E-02
22.28000, 4.737675
22.30000, 5.617031
22.32000, 2.088516
22.34000, 0.7241120
22.36000, 0.1412240
22.38000, 1.223357
22.40000, 2.109532
22.42000, 1.508502
22.44000, 0.7097020
22.46000, 0.5593000
22.48000, 0.4306070
22.50000, 0.3057660
22.52000, 0.1641790
22.54000, 0.4541290
22.56000, 1.327115
22.58000, 0.4067890
22.60000, 0.4669520
22.62000, 0.1992490
22.64000, 0.4549890
22.66000, 0.1744330
22.68000, 0.2889720
22.70000, 2.185851
22.72000, 1.487824
22.74000, 0.1208670
22.76000, 0.7747450
22.78000, 0.4394920
22.80000, 0.2643550
22.82000, 6.6877998E-02
22.84000, 0.3333320
22.86000, 1.576213
22.88000, 1.870955
22.90000, 1.725630
22.92000, 0.7574400
22.94000, 1.423426
22.96000, 2.972671
22.98000, 3.588995
23.00000, 5.097290
23.02000, 8.932369
23.04000, 12.30659
23.06000, 15.21854
23.08000, 16.83631
23.10000, 19.09025
23.12000, 22.57828
23.14000, 25.86094
23.16000, 27.16199
23.18000, 28.45362
23.20000, 27.74692
23.22000, 29.26840
23.24000, 30.93547
23.26000, 31.29293
23.28000, 31.36921
23.30000, 29.70313
23.32000, 27.41532
23.34000, 24.72810
23.36000, 19.31100
23.38000, 15.52541
23.40000, 13.61822
23.42000, 13.12253
23.44000, 10.24328
23.46000, 5.500018
23.48000, 3.063374
23.50000, 2.298345
23.52000, 2.236840
23.54000, 2.516955
23.56000, 0.7100090
23.58000, 0.7011970
23.60000, 0.7600260
23.62000, 1.646433
23.64000, 2.157559
23.66000, 1.883627
23.68000, 0.9550260
23.70000, 1.021379
23.72000, 2.199016
23.74000, 2.981392
23.76000, 3.727398
23.78000, 3.379309
23.80000, 1.952382
23.82000, 2.911188
23.84000, 4.002859
23.86000, 1.857513
23.88000, 0.2193890
23.90000, 0.6991610
23.92000, 0.7719300
23.94000, 0.4520320
23.96000, 1.082436
23.98000, 0.7839580
24.00000, 0.4416610
24.02000, 2.208795
24.04000, 2.086013
24.06000, 1.100320
24.08000, 0.2497290
24.10000, 2.236251
24.12000, 4.605400
24.14000, 8.274515
24.16000, 12.19273
24.18000, 14.64079
24.20000, 15.18762
24.22000, 14.48394
24.24000, 13.14363
24.26000, 14.97981
24.28000, 17.86137
24.30000, 18.10575
24.32000, 17.74313
24.34000, 14.72154
24.36000, 12.84440
24.38000, 14.56794
24.40000, 16.51286
24.42000, 15.93912
24.44000, 13.98649
24.46000, 12.84397
24.48000, 13.55177
24.50000, 11.88662
24.52000, 9.751838
24.54000, 8.176661
24.56000, 6.673637
24.58000, 5.695164
24.60000, 7.342154
24.62000, 8.379180
24.64000, 7.093632
24.66000, 7.135898
24.68000, 8.437599
24.70000, 11.65241
24.72000, 16.27848
24.74000, 21.40909
24.76000, 26.81642
24.78000, 32.06002
24.80000, 40.61848
24.82000, 52.01033
24.84000, 65.59273
24.86000, 78.78513
24.88000, 100.5214
24.90000, 122.3876
24.92000, 144.4034
24.94000, 168.3659
24.96000, 186.4950
24.98000, 204.9059
25.00000, 222.1288
25.02000, 231.4344
25.04000, 228.1125
25.06000, 226.8214
25.08000, 222.0801
25.10000, 210.5658
25.12000, 202.8771
25.14000, 188.9279
25.16000, 165.8228
25.18000, 146.1224
25.20000, 128.4749
25.22000, 109.6519
25.24000, 93.54258
25.26000, 80.80917
25.28000, 65.11398
25.30000, 50.27704
25.32000, 39.25871
25.34000, 27.37676
25.36000, 20.68623
25.38000, 16.16858
25.40000, 11.74203
25.42000, 7.910329
25.44000, 5.088828
25.46000, 4.927543
25.48000, 5.517844
25.50000, 5.348722
25.52000, 7.384373
25.54000, 9.416103
25.56000, 9.963797
25.58000, 10.52722
25.60000, 10.59694
25.62000, 9.489202
25.64000, 10.43657
25.66000, 13.21644
25.68000, 15.33455
25.70000, 14.65463
25.72000, 12.94383
25.74000, 12.57550
25.76000, 13.38712
25.78000, 13.39220
25.80000, 10.32172
25.82000, 7.556691
25.84000, 5.752616
25.86000, 7.579303
25.88000, 9.519664
25.90000, 9.946688
25.92000, 9.911470
25.94000, 9.158012
25.96000, 8.066204
25.98000, 9.744806
26.00000, 11.03366
26.02000, 13.91562
26.04000, 18.96562
26.06000, 21.65090
26.08000, 24.37731
26.10000, 25.65759
26.12000, 25.33426
26.14000, 26.46599
26.16000, 27.74071
26.18000, 26.49459
26.20000, 26.30112
26.22000, 24.83583
26.24000, 22.87094
26.26000, 20.27778
26.28000, 19.27769
26.30000, 17.10085
26.32000, 15.38911
26.34000, 13.49784
26.36000, 9.475048
26.38000, 6.714471
26.40000, 5.500119
26.42000, 4.513034
26.44000, 4.187390
26.46000, 1.694286
26.48000, 0.8913920
26.50000, 0.6551590
26.52000, 1.005220
26.54000, 0.8761670
26.56000, 0.3904430
26.58000, 1.421021
26.60000, 1.168553
26.62000, 0.6679090
26.64000, 4.021297
26.66000, 5.673317
26.68000, 4.464072
26.70000, 2.944083
26.72000, 2.055821
26.74000, 1.211856
26.76000, 1.968023
26.78000, 3.045919
26.80000, 4.712991
26.82000, 4.178284
26.84000, 2.471402
26.86000, 2.562073
26.88000, 2.875881
26.90000, 3.089220
26.92000, 3.575383
26.94000, 4.887660
26.96000, 7.164622
26.98000, 8.551289
27.00000, 7.323460
27.02000, 10.48559
27.04000, 14.29598
27.06000, 16.68250
27.08000, 19.93511
27.10000, 22.93176
27.12000, 23.25473
27.14000, 25.43569
27.16000, 27.73068
27.18000, 30.63992
27.20000, 37.69641
27.22000, 42.22449
27.24000, 42.82944
27.26000, 42.38232
27.28000, 40.16370
27.30000, 39.54427
27.32000, 35.58256
27.34000, 29.32379
27.36000, 25.43328
27.38000, 20.79264
27.40000, 18.00659
27.42000, 15.69047
27.44000, 13.69179
27.46000, 12.18499
27.48000, 11.30302
27.50000, 9.996278
27.52000, 6.442656
27.54000, 3.183796
27.56000, 3.157782
27.58000, 3.985814
27.60000, 2.370925
27.62000, 0.7653300
27.64000, 0.5561460
27.66000, 0.8304070
27.68000, 0.8290530
27.70000, 0.7443980
27.72000, 2.369277
27.74000, 2.774588
27.76000, 0.3472050
27.78000, 0.6313840
27.80000, 0.2667080
27.82000, 1.7906001E-02
27.84000, 0.2668410
27.86000, 0.2793220
27.88000, 0.6987500
27.90000, 0.4670440
27.92000, 0.4200290
27.94000, 0.7687740
27.96000, 0.5185020
27.98000, 5.4444000E-02
28.00000, 1.051894
28.02000, 3.024998
28.04000, 5.621966
28.06000, 7.289498
28.08000, 7.496691
28.10000, 9.889927
28.12000, 16.26903
28.14000, 24.29740
28.16000, 27.62351
28.18000, 26.79750
28.20000, 29.25351
28.22000, 35.75890
28.24000, 37.47158
28.26000, 40.66988
28.28000, 42.41149
28.30000, 42.65247
28.32000, 45.66241
28.34000, 46.41260
28.36000, 43.62858
28.38000, 42.33180
28.40000, 40.44247
28.42000, 35.39333
28.44000, 33.28667
28.46000, 29.39032
28.48000, 27.44547
28.50000, 25.43728
28.52000, 22.69856
28.54000, 20.31448
28.56000, 15.43459
28.58000, 12.60741
28.60000, 16.17528
28.62000, 15.11088
28.64000, 10.42593
28.66000, 7.156114
28.68000, 7.298744
28.70000, 8.443086
28.72000, 8.972070
28.74000, 8.035282
28.76000, 8.913735
28.78000, 8.760642
28.80000, 8.315443
28.82000, 9.182888
28.84000, 11.29075
28.86000, 13.01243
28.88000, 12.96111
28.90000, 10.29262
28.92000, 9.632404
28.94000, 7.529778
28.96000, 5.813431
28.98000, 8.085937
29.00000, 7.798565
29.02000, 6.229315
29.04000, 4.485202
29.06000, 3.381224
29.08000, 4.866529
29.10000, 5.640171
29.12000, 6.263333
29.14000, 6.306983
29.16000, 3.872952
29.18000, 1.568554
29.20000, 0.7197520
29.22000, 1.128431
29.24000, 0.3278050
29.26000, 1.7058000E-02
29.28000, 0.2974470
29.30000, 8.2897000E-02
29.32000, 0.3409670
29.34000, 2.633189
29.36000, 5.001889
29.38000, 4.247863
29.40000, 1.406212
29.42000, 0.2778560
29.44000, 0.9202750
29.46000, 0.2033410
29.48000, 0.1961260
29.50000, 0.2498170
29.52000, 3.411520
29.54000, 5.011866
29.56000, 6.441813
29.58000, 7.017618
29.60000, 4.894387
29.62000, 4.306380
29.64000, 3.421508
29.66000, 3.736873
29.68000, 3.757666
29.70000, 2.925484
29.72000, 2.710542
29.74000, 2.528707
29.76000, 3.667076
29.78000, 5.143507
29.80000, 4.914330
29.82000, 4.042958
29.84000, 4.389090
29.86000, 4.543729
29.88000, 4.430672
29.90000, 4.061022
29.92000, 4.497366
29.94000, 8.044313
29.96000, 9.424855
29.98000, 11.02018
30.00000, 13.21792
30.02000, 13.31119
30.04000, 11.00960
30.06000, 10.12531
30.08000, 9.336415
30.10000, 8.177480
30.12000, 7.316880
30.14000, 6.391893
30.16000, 4.821436
30.18000, 4.792544
30.20000, 4.122495
30.22000, 2.753322
30.24000, 4.285915
30.26000, 3.740003
30.28000, 3.715985
30.30000, 5.822978
30.32000, 6.551665
30.34000, 7.139279
30.36000, 7.134231
30.38000, 6.047287
30.40000, 5.362990
30.42000, 3.060118
30.44000, 2.358077
30.46000, 4.441367
30.48000, 6.502879
30.50000, 6.567228
30.52000, 6.137804
30.54000, 3.498706
30.56000, 0.3742350
30.58000, 2.3810999E-02
30.60000, 7.9865001E-02
30.62000, 0.1259790
30.64000, 0.2313050
30.66000, 0.2636620
30.68000, 8.3757997E-02
30.70000, 0.5609110
30.72000, 2.099078
30.74000, 2.709403
30.76000, 3.878855
30.78000, 6.767430
30.80000, 4.610038
30.82000, 2.373168
30.84000, 2.279631
30.86000, 1.053126
30.88000, 1.325926
30.90000, 1.338615
30.92000, 0.1301440
30.94000, 0.1600600
30.96000, 9.2941999E-02
30.98000, 0.5578710
31.00000, 7.5599998E-03
31.02000, 2.474546
31.04000, 4.098392
31.06000, 4.776175
31.08000, 3.687506
31.10000, 2.352069
31.12000, 2.274577
31.14000, 2.022778
31.16000, 0.4009700
31.18000, 0.5101950
31.20000, 2.436799
31.22000, 3.718675
31.24000, 4.047196
31.26000, 7.378169
31.28000, 10.24353
31.30000, 10.23847
31.32000, 9.659439
31.34000, 5.609897
31.36000, 4.013497
31.38000, 5.914052
31.40000, 5.170678
31.42000, 0.2432670
31.44000, 0.5983450
31.46000, 4.8744000E-02
31.48000, 0.5000640
31.50000, 0.6365360
31.52000, 0.1914310
31.54000, 7.8496002E-02
31.56000, 0.4078940
31.58000, 0.9686050
31.60000, 1.261086
31.62000, 2.574458
31.64000, 4.591996
31.66000, 3.144991
31.68000, 2.294776
31.70000, 4.875039
31.72000, 5.136812
31.74000, 2.980113
31.76000, 4.028330
31.78000, 5.811974
31.80000, 5.002598
31.82000, 4.123978
31.84000, 1.735943
31.86000, 1.300716
31.88000, 3.224604
31.90000, 2.592768
31.92000, 0.5379880
31.94000, 8.9813001E-02
31.96000, 0.8206810
31.98000, 0.8015380
32.00000, 1.392468
32.02000, 2.711322
32.04000, 2.504301
32.06000, 1.608359
32.08000, 0.9366140
32.10000, 0.6137560
32.12000, 0.7109450
32.14000, 1.239835
32.16000, 0.1663030
32.18000, 0.2997040
32.20000, 1.151047
32.22000, 2.160705
32.24000, 2.775063
32.26000, 2.523612
32.28000, 2.126871
32.30000, 2.578931
32.32000, 3.006386
32.34000, 1.986049
32.36000, 0.3769790
32.38000, 3.170399
32.40000, 4.904491
32.42000, 2.853225
32.44000, 1.283349
32.46000, 2.516089
32.48000, 5.428442
32.50000, 4.569140
32.52000, 3.789686
32.54000, 4.033482
32.56000, 3.048415
32.58000, 4.600978
32.60000, 2.407148
32.62000, 2.279222
32.64000, 3.160810
32.66000, 2.383961
32.68000, 3.762999
32.70000, 2.516542
32.72000, 2.661344
32.74000, 3.567413
32.76000, 3.364720
32.78000, 2.698347
32.80000, 3.018474
32.82000, 4.923307
32.84000, 6.798743
32.86000, 9.627481
32.88000, 10.54041
32.90000, 12.07706
32.92000, 14.91000
32.94000, 14.72715
32.96000, 15.40170
32.98000, 15.44930
33.00000, 17.45008
33.02000, 18.27416
33.04000, 15.58079
33.06000, 14.08577
33.08000, 17.27499
33.10000, 19.77791
33.12000, 20.47511
33.14000, 24.70338
33.16000, 23.32894
33.18000, 18.23501
33.20000, 13.85625
33.22000, 10.01380
33.24000, 7.647235
33.26000, 8.246478
33.28000, 11.35603
33.30000, 11.65133
33.32000, 8.664690
33.34000, 7.225048
33.36000, 7.387395
33.38000, 6.822891
33.40000, 6.419264
33.42000, 4.283914
33.44000, 2.287948
33.46000, 2.440863
33.48000, 2.970088
33.50000, 1.228911
33.52000, 0.1950490
33.54000, 1.952593
33.56000, 1.023348
33.58000, 1.275624
33.60000, 1.246036
33.62000, 2.246056
33.64000, 1.970356
33.66000, 2.467735
33.68000, 0.7954010
33.70000, 3.616575
33.72000, 6.663256
33.74000, 9.095656
33.76000, 9.534282
33.78000, 9.890565
33.80000, 11.97321
33.82000, 12.63696
33.84000, 18.02201
33.86000, 22.93772
33.88000, 28.09632
33.90000, 32.17674
33.92000, 31.82394
33.94000, 32.82438
33.96000, 31.91216
33.98000, 29.29627
34.00000, 29.44350
34.02000, 28.98898
34.04000, 26.48083
34.06000, 23.65230
34.08000, 24.45659
34.10000, 24.61077
34.12000, 22.33433
34.14000, 23.20219
34.16000, 23.55037
34.18000, 21.82299
34.20000, 19.93051
34.22000, 16.91113
34.24000, 15.39574
34.26000, 17.81897
34.28000, 17.30293
34.30000, 16.67065
34.32000, 15.64078
34.34000, 14.46542
34.36000, 11.59541
34.38000, 6.870986
34.40000, 5.460638
34.42000, 5.978918
34.44000, 5.466425
34.46000, 6.961114
34.48000, 8.797141
34.50000, 9.032827
34.52000, 7.675242
34.54000, 6.818642
34.56000, 11.95242
34.58000, 14.09648
34.60000, 12.67575
34.62000, 13.67155
34.64000, 14.86338
34.66000, 15.70164
34.68000, 15.85574
34.70000, 17.34200
34.72000, 17.78551
34.74000, 17.06176
34.76000, 16.06956
34.78000, 15.96138
34.80000, 15.98244
34.82000, 17.21802
34.84000, 16.44103
34.86000, 16.38734
34.88000, 14.85049
34.90000, 15.94517
34.92000, 14.75357
34.94000, 10.26389
34.96000, 7.132651
34.98000, 8.681557
35.00000, 7.717277
35.02000, 8.808719
35.04000, 10.71980
35.06000, 8.630458
35.08000, 8.324280
35.10000, 10.11215
35.12000, 7.057585
35.14000, 5.183486
35.16000, 8.563542
35.18000, 8.825216
35.20000, 6.816720
35.22000, 2.321014
35.24000, 0.4674380
35.26000, 3.190701
35.28000, 2.572034
35.30000, 1.900891
35.32000, 5.595277
35.34000, 9.399998
35.36000, 10.49366
35.38000, 9.542357
35.40000, 11.20967
35.42000, 9.732000
35.44000, 7.227341
35.46000, 8.242592
35.48000, 10.70308
35.50000, 11.85961
35.52000, 13.17320
35.54000, 11.47143
35.56000, 10.39295
35.58000, 10.74075
35.60000, 12.00177
35.62000, 12.78964
35.64000, 12.15800
35.66000, 12.18803
35.68000, 11.03958
35.70000, 9.499189
35.72000, 7.038394
35.74000, 5.295397
35.76000, 8.056887
35.78000, 9.332373
35.80000, 9.768708
35.82000, 9.804845
35.84000, 8.906488
35.86000, 5.216202
35.88000, 2.324643
35.90000, 1.757181
35.92000, 2.518782
35.94000, 2.366421
35.96000, 0.5713840
35.98000, 4.150257
36.00000, 7.177313
36.02000, 5.963174
36.04000, 10.22022
36.06000, 9.390130
36.08000, 6.976038
36.10000, 6.148466
36.12000, 4.064311
36.14000, 2.611745
36.16000, 3.247252
36.18000, 2.444511
36.20000, 0.6430540
36.22000, 0.5302370
36.24000, 1.658482
36.26000, 2.514779
36.28000, 0.6066400
36.30000, 0.4528710
36.32000, 2.839451
36.34000, 5.041486
36.36000, 5.597918
36.38000, 5.289680
36.40000, 4.472381
36.42000, 6.819097
36.44000, 10.11762
36.46000, 8.950526
36.48000, 13.41725
36.50000, 17.58961
36.52000, 13.39628
36.54000, 6.868323
36.56000, 8.3021998E-02
36.58000, 1.301543
36.60000, 6.921301
36.62000, 4.377555
36.64000, 9.357215
36.66000, 13.09922
36.68000, 8.871796
36.70000, 6.117762
36.72000, 0.7123900
36.74000, 4.4013001E-02
36.76000, 3.299045
36.78000, 0.1364080
36.80000, 1.298339
36.82000, 7.652096
36.84000, 8.422090
36.86000, 10.60003
36.88000, 15.07022
36.90000, 10.98132
36.92000, 3.114532
36.94000, 5.1569999E-03
36.96000, 6.556479
36.98000, 0.0000000E+00
##END=



