##NAMES=Sampleite
##RRUFFID=R050572
##IDEAL CHEMISTRY=NaCaCu^2+^_5_(P^5+^O_4_)_4_Cl&#183;5H_2_O
##LOCALITY=Chuquicamata pit, Chuquicamata, Chile
##OWNER=RRUFF
##SOURCE=University of Arizona Mineral Museum
##DESCRIPTION=Blue massive crust, associated with green atacamite
##DIFFRACTION SAMPLE DESCRIPTION=Powder, using Mo radiation
##STATUS=The identification of this mineral has been confirmed only by chemical analysis
##URL=rruff.info/R050572
##MEASURED CHEMISTRY=(Na_0.95_K_0.05_)_Σ=1_Ca_1.00_Cu_5.00_(P_1.00_O_4_)_4_Cl_1.00_·5H_2_O
6.590000, 0.0000000E+00
6.620000, 1.588287
6.650000, 0.5273740
6.680000, 3.333344
6.710000, 1.493256
6.740000, 1.722595
6.770000, 1.412323
6.800000, 10.38669
6.830000, 18.52783
6.860000, 18.19278
6.890000, 14.44098
6.920000, 8.475494
6.950000, 2.464783
6.980000, 2.920654
7.010000, 6.038025
7.040000, 6.974457
7.070000, 13.29871
7.100000, 21.66498
7.130000, 33.50098
7.160000, 42.17468
7.190000, 37.29474
7.220000, 34.97922
7.250000, 37.54068
7.280000, 39.26520
7.310000, 44.71841
7.340000, 42.79767
7.370000, 40.24155
7.400000, 44.72562
7.430000, 47.89093
7.460000, 45.36823
7.490000, 44.02875
7.520000, 32.95691
7.550000, 34.39307
7.580000, 28.43610
7.610000, 21.95840
7.640000, 29.21854
7.670000, 33.45325
7.700000, 33.80771
7.730000, 36.19608
7.760000, 38.31674
7.790000, 43.11176
7.820000, 44.23834
7.850000, 44.52597
7.880000, 45.88541
7.910000, 38.90958
7.940000, 33.97974
7.970000, 36.39609
8.000000, 37.29321
8.030000, 32.37967
8.060000, 23.53677
8.090000, 19.40469
8.120000, 19.41669
8.150000, 19.50671
8.180000, 22.25964
8.210000, 26.02023
8.240000, 30.89240
8.270000, 30.49573
8.300000, 30.94299
8.330000, 36.21878
8.360000, 47.60876
8.390000, 57.73795
8.420000, 61.33191
8.450000, 70.15100
8.480000, 81.54663
8.510000, 88.65714
8.540000, 94.04657
8.570000, 94.62973
8.600000, 100.5955
8.630000, 110.7881
8.660000, 116.5984
8.690000, 127.8417
8.720000, 131.4341
8.750000, 142.3508
8.780000, 139.4182
8.810000, 140.6507
8.840000, 144.9767
8.870000, 141.7454
8.900000, 145.0788
8.930000, 149.0372
8.960000, 147.2957
8.990000, 153.2106
9.020000, 164.4789
9.050000, 168.9927
9.080000, 171.7637
9.110000, 170.4750
9.140000, 177.6962
9.170000, 196.2915
9.200000, 213.0875
9.230000, 229.3507
9.260000, 245.7190
9.290000, 263.3162
9.320000, 290.5331
9.350000, 314.4777
9.380000, 333.8329
9.410000, 352.6999
9.440000, 366.7505
9.470000, 377.6858
9.500000, 380.8026
9.530000, 373.1391
9.560000, 366.6091
9.590000, 362.5906
9.620000, 348.8701
9.650000, 345.3815
9.680000, 318.6640
9.710000, 298.5381
9.740000, 275.2390
9.770000, 260.4941
9.800000, 254.6445
9.830000, 240.1151
9.860000, 223.4011
9.890000, 201.4049
9.920000, 185.0212
9.950000, 174.8032
9.980000, 170.4680
10.01000, 163.3326
10.04000, 158.2511
10.07000, 156.0975
10.10000, 144.8078
10.13000, 137.0910
10.16000, 134.9765
10.19000, 132.0214
10.22000, 129.9754
10.25000, 125.5429
10.28000, 124.1575
10.31000, 123.7568
10.34000, 118.7970
10.37000, 122.4107
10.40000, 125.8958
10.43000, 116.8702
10.46000, 102.0309
10.49000, 95.15710
10.52000, 94.49323
10.55000, 93.49133
10.58000, 99.65012
10.61000, 96.01208
10.64000, 102.9752
10.67000, 92.44171
10.70000, 88.14410
10.73000, 84.61896
10.76000, 80.22101
10.79000, 73.47406
10.82000, 65.12689
10.85000, 55.69110
10.88000, 52.62537
10.91000, 45.53555
10.94000, 38.74731
10.97000, 32.75342
11.00000, 21.88089
11.03000, 13.72446
11.06000, 9.102020
11.09000, 11.08646
11.12000, 15.02975
11.15000, 20.05475
11.18000, 17.17038
11.21000, 11.56265
11.24000, 11.95853
11.27000, 7.158844
11.30000, 3.370697
11.33000, 2.592987
11.36000, 1.163330
11.39000, 5.949921
11.42000, 15.18719
11.45000, 19.92932
11.48000, 15.29962
11.51000, 11.18155
11.54000, 7.152405
11.57000, 7.617188
11.60000, 8.728882
11.63000, 10.13657
11.66000, 14.20743
11.69000, 12.45422
11.72000, 11.68747
11.75000, 15.64291
11.78000, 20.99130
11.81000, 23.67767
11.84000, 23.17963
11.87000, 16.40588
11.90000, 9.695038
11.93000, 3.708588
11.96000, 4.318634
11.99000, 11.53073
12.02000, 19.13663
12.05000, 25.83853
12.08000, 32.11343
12.11000, 33.72235
12.14000, 30.64828
12.17000, 28.54230
12.20000, 27.76944
12.23000, 30.74878
12.26000, 27.51025
12.29000, 22.87189
12.32000, 25.74673
12.35000, 31.64685
12.38000, 36.07211
12.41000, 43.61758
12.44000, 58.46442
12.47000, 73.22150
12.50000, 83.15881
12.53000, 90.99548
12.56000, 98.47339
12.59000, 105.0834
12.62000, 112.0453
12.65000, 117.0299
12.68000, 124.5031
12.71000, 131.1649
12.74000, 136.4561
12.77000, 135.5247
12.80000, 135.7081
12.83000, 131.4059
12.86000, 126.1798
12.89000, 123.7659
12.92000, 126.5754
12.95000, 135.4512
12.98000, 142.8402
13.01000, 154.2657
13.04000, 172.3036
13.07000, 197.0673
13.10000, 231.3499
13.13000, 273.9996
13.16000, 327.7729
13.19000, 397.3474
13.22000, 476.1496
13.25000, 569.2040
13.28000, 664.7037
13.31000, 760.2784
13.34000, 855.7987
13.37000, 922.9437
13.40000, 968.8344
13.43000, 1000.420
13.46000, 1017.301
13.49000, 1023.357
13.52000, 1017.538
13.55000, 987.4242
13.58000, 945.2758
13.61000, 896.0825
13.64000, 842.5341
13.67000, 779.7411
13.70000, 705.4233
13.73000, 629.2305
13.76000, 561.4930
13.79000, 502.4212
13.82000, 448.5663
13.85000, 410.3253
13.88000, 383.5519
13.91000, 373.9592
13.94000, 374.2925
13.97000, 385.9703
14.00000, 406.4695
14.03000, 422.7354
14.06000, 431.7225
14.09000, 439.8002
14.12000, 446.6682
14.15000, 454.8065
14.18000, 456.9612
14.21000, 444.4340
14.24000, 417.9032
14.27000, 388.1978
14.30000, 361.3234
14.33000, 340.6554
14.36000, 317.6351
14.39000, 303.7231
14.42000, 281.0418
14.45000, 264.3607
14.48000, 250.5458
14.51000, 242.8822
14.54000, 236.3687
14.57000, 233.6223
14.60000, 228.8372
14.63000, 216.4482
14.66000, 206.2873
14.69000, 201.0077
14.72000, 195.3611
14.75000, 188.2606
14.78000, 171.8773
14.81000, 155.2122
14.84000, 136.3071
14.87000, 119.8011
14.90000, 113.6174
14.93000, 111.5109
14.96000, 113.0491
14.99000, 124.3081
15.02000, 137.0165
15.05000, 152.5289
15.08000, 167.8217
15.11000, 189.2627
15.14000, 218.4125
15.17000, 241.0386
15.20000, 267.4004
15.23000, 294.7589
15.26000, 323.2773
15.29000, 343.3511
15.32000, 353.2758
15.35000, 358.4147
15.38000, 354.8270
15.41000, 347.0228
15.44000, 339.1118
15.47000, 324.5539
15.50000, 310.9050
15.53000, 296.5447
15.56000, 279.5475
15.59000, 266.6199
15.62000, 261.7628
15.65000, 263.2901
15.68000, 268.5768
15.71000, 271.3771
15.74000, 268.1356
15.77000, 265.6566
15.80000, 267.7709
15.83000, 263.9088
15.86000, 259.8479
15.89000, 255.9313
15.92000, 252.9081
15.95000, 245.1532
15.98000, 233.6637
16.01000, 220.3394
16.04000, 202.0213
16.07000, 184.8087
16.10000, 170.9747
16.13000, 156.1686
16.16000, 142.2018
16.19000, 131.1212
16.22000, 116.6439
16.25000, 105.5192
16.28000, 94.78992
16.31000, 87.44983
16.34000, 83.42303
16.37000, 82.33258
16.40000, 80.88043
16.43000, 79.53766
16.46000, 77.74628
16.49000, 76.46521
16.52000, 80.52441
16.55000, 88.04004
16.58000, 98.81104
16.61000, 119.3076
16.64000, 144.3831
16.67000, 171.6814
16.70000, 197.8782
16.73000, 221.0186
16.76000, 251.5434
16.79000, 281.1041
16.82000, 313.3906
16.85000, 338.4178
16.88000, 354.5760
16.91000, 363.5950
16.94000, 363.3528
16.97000, 356.5005
17.00000, 337.4197
17.03000, 303.5139
17.06000, 272.8298
17.09000, 244.5013
17.12000, 217.2766
17.15000, 192.5884
17.18000, 172.1308
17.21000, 157.5709
17.24000, 146.7244
17.27000, 136.3156
17.30000, 125.9322
17.33000, 111.6163
17.36000, 101.8118
17.39000, 97.84070
17.42000, 93.38507
17.45000, 88.98279
17.48000, 90.93176
17.51000, 88.57404
17.54000, 78.46265
17.57000, 70.76440
17.60000, 64.62036
17.63000, 59.37152
17.66000, 55.80676
17.69000, 52.55914
17.72000, 46.98474
17.75000, 40.47058
17.78000, 37.96790
17.81000, 35.70581
17.84000, 31.74268
17.87000, 31.33649
17.90000, 34.39581
17.93000, 34.69196
17.96000, 30.29407
17.99000, 24.20123
18.02000, 29.11115
18.05000, 25.61810
18.08000, 24.66553
18.11000, 25.75494
18.14000, 21.63959
18.17000, 20.15576
18.20000, 17.00061
18.23000, 14.42188
18.26000, 12.70868
18.29000, 11.08002
18.32000, 12.65771
18.35000, 14.41785
18.38000, 13.34735
18.41000, 13.98523
18.44000, 18.99133
18.47000, 22.93182
18.50000, 27.35718
18.53000, 28.42365
18.56000, 27.51837
18.59000, 31.44678
18.62000, 39.67480
18.65000, 52.28864
18.68000, 67.97388
18.71000, 82.50665
18.74000, 97.19592
18.77000, 112.6302
18.80000, 137.4712
18.83000, 154.6008
18.86000, 161.5089
18.89000, 167.5570
18.92000, 169.5636
18.95000, 163.3396
18.98000, 152.7761
19.01000, 142.6941
19.04000, 133.4237
19.07000, 119.3661
19.10000, 105.0789
19.13000, 92.42007
19.16000, 78.68048
19.19000, 71.22113
19.22000, 66.58798
19.25000, 59.35397
19.28000, 57.49316
19.31000, 58.58829
19.34000, 59.07654
19.37000, 60.45578
19.40000, 58.00601
19.43000, 52.05615
19.46000, 47.75113
19.49000, 43.50806
19.52000, 39.58371
19.55000, 35.16922
19.58000, 33.11542
19.61000, 32.12350
19.64000, 29.92120
19.67000, 23.02429
19.70000, 15.98740
19.73000, 16.90909
19.76000, 22.36533
19.79000, 26.71985
19.82000, 27.26566
19.85000, 29.11850
19.88000, 29.76480
19.91000, 28.64038
19.94000, 24.22015
19.97000, 19.88516
20.00000, 17.61633
20.03000, 16.93661
20.06000, 12.69800
20.09000, 6.933411
20.12000, 0.8308110
20.15000, 0.8579100
20.18000, 4.575043
20.21000, 6.423004
20.24000, 6.904541
20.27000, 7.425995
20.30000, 5.342438
20.33000, 2.794891
20.36000, 1.767273
20.39000, 3.433746
20.42000, 8.396484
20.45000, 15.10580
20.48000, 19.46762
20.51000, 20.31906
20.54000, 20.10895
20.57000, 19.69226
20.60000, 21.25806
20.63000, 24.09225
20.66000, 26.58777
20.69000, 30.94467
20.72000, 31.29483
20.75000, 29.79431
20.78000, 26.40292
20.81000, 23.42972
20.84000, 22.01370
20.87000, 22.44086
20.90000, 19.46008
20.93000, 21.44354
20.96000, 19.27762
20.99000, 25.78290
21.02000, 30.34116
21.05000, 35.48837
21.08000, 37.06641
21.11000, 41.28232
21.14000, 46.53506
21.17000, 52.12769
21.20000, 60.98801
21.23000, 75.43008
21.26000, 91.24182
21.29000, 101.7249
21.32000, 109.0949
21.35000, 120.3151
21.38000, 131.3441
21.41000, 136.8260
21.44000, 146.9827
21.47000, 161.7924
21.50000, 164.8610
21.53000, 163.0273
21.56000, 161.8143
21.59000, 153.9920
21.62000, 143.3019
21.65000, 134.7449
21.68000, 123.6641
21.71000, 112.3065
21.74000, 102.7749
21.77000, 91.95651
21.80000, 82.49182
21.83000, 72.58136
21.86000, 63.05981
21.89000, 55.47733
21.92000, 44.64667
21.95000, 36.18896
21.98000, 31.93512
22.01000, 28.56613
22.04000, 19.20099
22.07000, 10.96967
22.10000, 1.586578
22.13000, 4.079437
22.16000, 13.29794
22.19000, 13.48837
22.22000, 16.01636
22.25000, 17.52646
22.28000, 23.29645
22.31000, 26.15857
22.34000, 22.73083
22.37000, 22.24881
22.40000, 21.86676
22.43000, 18.00330
22.46000, 13.41742
22.49000, 6.600800
22.52000, 0.4171450
22.55000, 6.480957
22.58000, 14.41425
22.61000, 17.67438
22.64000, 27.97833
22.67000, 23.71265
22.70000, 25.25723
22.73000, 27.00592
22.76000, 32.56686
22.79000, 36.31995
22.82000, 37.73715
22.85000, 37.23953
22.88000, 38.75604
22.91000, 40.30069
22.94000, 36.71045
22.97000, 30.84531
23.00000, 24.89627
23.03000, 26.05939
23.06000, 30.38354
23.09000, 29.75278
23.12000, 27.38507
23.15000, 22.75745
23.18000, 20.09692
23.21000, 17.53033
23.24000, 14.14853
23.27000, 10.13919
23.30000, 8.823486
23.33000, 8.815216
23.36000, 10.67734
23.39000, 13.83105
23.42000, 18.66068
23.45000, 24.93549
23.48000, 33.44955
23.51000, 43.04865
23.54000, 55.37476
23.57000, 68.55786
23.60000, 87.98395
23.63000, 119.0771
23.66000, 156.9682
23.69000, 204.4053
23.72000, 253.8414
23.75000, 308.8704
23.78000, 368.3331
23.81000, 427.5280
23.84000, 478.1493
23.87000, 523.0444
23.90000, 563.7909
23.93000, 599.2001
23.96000, 618.8076
23.99000, 618.6716
24.02000, 601.8327
24.05000, 572.7570
24.08000, 535.0571
24.11000, 488.2718
24.14000, 440.0096
24.17000, 395.3885
24.20000, 354.8477
24.23000, 316.8210
24.26000, 279.8307
24.29000, 239.8510
24.32000, 207.3719
24.35000, 181.0140
24.38000, 157.5363
24.41000, 136.8088
24.44000, 121.6465
24.47000, 111.9515
24.50000, 103.7517
24.53000, 95.15314
24.56000, 86.02979
24.59000, 76.42575
24.62000, 62.04691
24.65000, 52.60135
24.68000, 48.29507
24.71000, 46.34308
24.74000, 39.72736
24.77000, 33.34091
24.80000, 28.19186
24.83000, 21.45105
24.86000, 15.45059
24.89000, 12.44720
24.92000, 11.69861
24.95000, 7.247711
24.98000, 0.2597350
25.01000, 3.621887
25.04000, 2.301117
25.07000, 0.3857420
25.10000, 4.072083
25.13000, 12.45270
25.16000, 24.57724
25.19000, 36.27335
25.22000, 46.74069
25.25000, 59.45132
25.28000, 75.94809
25.31000, 95.59122
25.34000, 115.9542
25.37000, 131.2893
25.40000, 145.9019
25.43000, 153.6819
25.46000, 155.0117
25.49000, 152.3859
25.52000, 149.0738
25.55000, 136.8392
25.58000, 123.2231
25.61000, 110.2650
25.64000, 94.51776
25.67000, 81.47253
25.70000, 70.44855
25.73000, 56.55304
25.76000, 47.53391
25.79000, 37.50363
25.82000, 30.30789
25.85000, 29.44196
25.88000, 30.72989
25.91000, 31.05154
25.94000, 28.56207
25.97000, 25.67459
26.00000, 23.73193
26.03000, 23.09827
26.06000, 26.83093
26.09000, 27.48636
26.12000, 23.16351
26.15000, 22.17422
26.18000, 21.04620
26.21000, 15.65613
26.24000, 9.717499
26.27000, 7.216949
26.30000, 5.972595
26.33000, 3.848480
26.36000, 7.355591
26.39000, 10.61395
26.42000, 9.958527
26.45000, 7.359406
26.48000, 5.238586
26.51000, 4.214111
26.54000, 2.041962
26.57000, 3.644165
26.60000, 9.034760
26.63000, 16.34076
26.66000, 25.13217
26.69000, 36.55203
26.72000, 46.16034
26.75000, 59.97910
26.78000, 77.47324
26.81000, 98.83401
26.84000, 117.4285
26.87000, 136.0012
26.90000, 157.5314
26.93000, 176.4044
26.96000, 197.0241
26.99000, 218.2578
27.02000, 243.1725
27.05000, 263.0389
27.08000, 273.7822
27.11000, 285.7345
27.14000, 289.7576
27.17000, 286.3488
27.20000, 276.1270
27.23000, 261.7202
27.26000, 249.4984
27.29000, 238.5367
27.32000, 226.1311
27.35000, 212.9860
27.38000, 201.7386
27.41000, 189.1917
27.44000, 177.5023
27.47000, 166.8400
27.50000, 157.9950
27.53000, 149.8675
27.56000, 142.5509
27.59000, 137.0223
27.62000, 129.9111
27.65000, 125.0452
27.68000, 126.4566
27.71000, 125.9213
27.74000, 122.3365
27.77000, 119.2050
27.80000, 117.6498
27.83000, 114.5501
27.86000, 114.5779
27.89000, 116.9722
27.92000, 117.3969
27.95000, 116.4001
27.98000, 120.7739
28.01000, 124.6211
28.04000, 124.2359
28.07000, 122.7553
28.10000, 116.5823
28.13000, 114.9819
28.16000, 117.6601
28.19000, 122.7810
28.22000, 125.9895
28.25000, 127.1917
28.28000, 122.3546
28.31000, 116.5383
28.34000, 114.2657
28.37000, 111.1508
28.40000, 107.1358
28.43000, 106.0034
28.46000, 104.2264
28.49000, 100.4889
28.52000, 94.62372
28.55000, 86.37695
28.58000, 78.28891
28.61000, 72.55554
28.64000, 70.90054
28.67000, 68.84790
28.70000, 65.85901
28.73000, 61.04596
28.76000, 58.51312
28.79000, 52.08548
28.82000, 38.26489
28.85000, 29.01837
28.88000, 26.92737
28.91000, 27.57489
28.94000, 27.33426
28.97000, 30.86102
29.00000, 31.82294
29.03000, 28.94812
29.06000, 24.45450
29.09000, 21.99820
29.12000, 18.98312
29.15000, 16.03833
29.18000, 15.31485
29.21000, 17.35919
29.24000, 15.62335
29.27000, 12.75079
29.30000, 4.519409
29.33000, 0.9426270
29.36000, 0.3379520
29.39000, 1.758667
29.42000, 3.864990
29.45000, 2.781464
29.48000, 4.796387
29.51000, 9.151764
29.54000, 6.566772
29.57000, 0.2967530
29.60000, 3.797577
29.63000, 9.937408
29.66000, 9.441498
29.69000, 16.85516
29.72000, 22.00632
29.75000, 30.36203
29.78000, 37.95737
29.81000, 48.95331
29.84000, 60.10776
29.87000, 77.15262
29.90000, 95.93707
29.93000, 110.2830
29.96000, 124.2554
29.99000, 135.9223
30.02000, 140.8828
30.05000, 142.3708
30.08000, 144.1873
30.11000, 140.7914
30.14000, 135.8120
30.17000, 129.9432
30.20000, 117.5670
30.23000, 102.0964
30.26000, 93.12354
30.29000, 87.29242
30.32000, 76.70914
30.35000, 67.41046
30.38000, 61.65918
30.41000, 54.97311
30.44000, 53.25186
30.47000, 47.38113
30.50000, 40.91440
30.53000, 34.29245
30.56000, 26.20325
30.59000, 21.12567
30.62000, 18.29910
30.65000, 18.16202
30.68000, 23.94772
30.71000, 22.65298
30.74000, 21.72235
30.77000, 21.19705
30.80000, 23.02228
30.83000, 28.40427
30.86000, 35.10983
30.89000, 43.55307
30.92000, 53.69589
30.95000, 64.21332
30.98000, 69.92535
31.01000, 74.51694
31.04000, 75.22015
31.07000, 77.63885
31.10000, 83.65015
31.13000, 91.47800
31.16000, 100.1694
31.19000, 103.5373
31.22000, 105.5528
31.25000, 102.2058
31.28000, 99.55927
31.31000, 100.3274
31.34000, 98.54996
31.37000, 95.65094
31.40000, 94.60663
31.43000, 93.06097
31.46000, 91.04123
31.49000, 87.12189
31.52000, 85.65866
31.55000, 83.21341
31.58000, 77.55206
31.61000, 69.47421
31.64000, 59.79083
31.67000, 50.05292
31.70000, 44.50049
31.73000, 42.26660
31.76000, 39.14514
31.79000, 38.60916
31.82000, 35.49561
31.85000, 33.03253
31.88000, 29.98090
31.91000, 25.11865
31.94000, 21.11789
31.97000, 22.03061
32.00000, 22.85773
32.03000, 22.08224
32.06000, 22.39279
32.09000, 19.29303
32.12000, 22.16852
32.15000, 24.14908
32.18000, 25.36807
32.21000, 22.08142
32.24000, 14.87183
32.27000, 8.461517
32.30000, 3.687775
32.33000, 0.3886410
32.36000, 5.054382
32.39000, 5.497559
32.42000, 9.233124
32.45000, 10.33560
32.48000, 7.839447
32.51000, 3.388489
32.54000, 2.478943
32.57000, 2.462646
32.60000, 2.781708
32.63000, 4.171967
32.66000, 3.566559
32.69000, 1.524384
32.72000, 4.884583
32.75000, 11.96899
32.78000, 6.752838
32.81000, 0.2321170
32.84000, 2.636780
32.87000, 1.345367
32.90000, 1.870789
32.93000, 1.652405
32.96000, 2.162933
32.99000, 2.604462
33.02000, 5.937988
33.05000, 11.60458
33.08000, 15.06345
33.11000, 15.37378
33.14000, 18.98712
33.17000, 27.51685
33.20000, 34.60788
33.23000, 40.20068
33.26000, 48.73822
33.29000, 55.54547
33.32000, 56.90546
33.35000, 61.56711
33.38000, 71.34238
33.41000, 81.36734
33.44000, 82.87799
33.47000, 81.70224
33.50000, 88.64331
33.53000, 83.64459
33.56000, 78.14291
33.59000, 72.16705
33.62000, 64.29105
33.65000, 58.86960
33.68000, 44.02704
33.71000, 41.02298
33.74000, 40.65549
33.77000, 39.81735
33.80000, 37.27530
33.83000, 35.07825
33.86000, 35.66977
33.89000, 36.92181
33.92000, 43.21683
33.95000, 52.42236
33.98000, 57.56488
34.01000, 62.61176
34.04000, 67.84460
34.07000, 74.71732
34.10000, 79.31531
34.13000, 83.15884
34.16000, 82.08777
34.19000, 80.13043
34.22000, 77.52762
34.25000, 72.39258
34.28000, 67.21530
34.31000, 58.81604
34.34000, 52.67151
34.37000, 43.54840
34.40000, 33.79016
34.43000, 29.56720
34.46000, 28.44693
34.49000, 23.82645
34.52000, 15.72864
34.55000, 9.251556
34.58000, 10.28516
34.61000, 13.96948
34.64000, 16.10144
34.67000, 16.70108
34.70000, 20.17038
34.73000, 19.01434
34.76000, 18.35889
34.79000, 18.95316
34.82000, 21.52405
34.85000, 24.74960
34.88000, 24.34076
34.91000, 21.67456
34.94000, 19.58093
34.97000, 19.75391
35.00000, 17.41248
35.03000, 16.41864
35.06000, 15.73138
35.09000, 14.84521
35.12000, 16.21942
35.15000, 14.60275
35.18000, 14.83563
35.21000, 15.56699
35.24000, 18.37387
35.27000, 20.95319
35.30000, 19.38504
35.33000, 18.71335
35.36000, 16.73514
35.39000, 19.50232
35.42000, 26.14200
35.45000, 31.27505
35.48000, 33.37253
35.51000, 28.44940
35.54000, 29.10867
35.57000, 34.27939
35.60000, 35.55341
35.63000, 37.25781
35.66000, 32.84955
35.69000, 28.56964
35.72000, 28.62308
35.75000, 30.67880
35.78000, 28.48486
35.81000, 27.16757
35.84000, 29.15512
35.87000, 29.87924
35.90000, 28.47278
35.93000, 31.25964
35.96000, 31.60944
35.99000, 27.71204
36.02000, 23.70712
36.05000, 19.20578
36.08000, 18.36172
36.11000, 19.68951
36.14000, 23.02631
36.17000, 26.76523
36.20000, 28.07834
36.23000, 24.73260
36.26000, 21.26410
36.29000, 22.46375
36.32000, 23.23654
36.35000, 22.27161
36.38000, 23.29825
36.41000, 24.94980
36.44000, 24.40915
36.47000, 25.19504
36.50000, 21.77411
36.53000, 19.74008
36.56000, 22.03073
36.59000, 23.67160
36.62000, 24.28665
36.65000, 26.19882
36.68000, 26.50165
36.71000, 27.43082
36.74000, 26.87189
36.77000, 27.54413
36.80000, 24.67450
36.83000, 25.55948
36.86000, 22.65961
36.89000, 25.28238
36.92000, 23.59619
36.95000, 22.67117
36.98000, 24.29120
37.01000, 22.57437
37.04000, 22.21658
37.07000, 25.20288
37.10000, 24.08627
37.13000, 21.85672
37.16000, 21.46921
37.19000, 18.69778
37.22000, 19.27939
37.25000, 19.08203
37.28000, 16.03470
37.31000, 12.18646
37.34000, 7.547211
37.37000, 5.164886
37.40000, 5.201324
37.43000, 5.578461
37.46000, 4.183350
37.49000, 0.1077580
37.52000, 0.6831670
37.55000, 1.648163
37.58000, 3.142426
37.61000, 4.904449
37.64000, 5.568115
37.67000, 8.949890
37.70000, 9.344482
37.73000, 10.05911
37.76000, 8.474152
37.79000, 6.856812
37.82000, 8.179260
37.85000, 7.055084
37.88000, 5.541809
37.91000, 2.783569
37.94000, 0.6852420
37.97000, 5.343933
38.00000, 10.41138
38.03000, 16.66684
38.06000, 24.06314
38.09000, 29.37250
38.12000, 31.20773
38.15000, 31.17596
38.18000, 34.58618
38.21000, 39.15033
38.24000, 43.78647
38.27000, 46.28610
38.30000, 46.11646
38.33000, 44.54947
38.36000, 41.97241
38.39000, 40.74203
38.42000, 40.79172
38.45000, 41.11234
38.48000, 39.12595
38.51000, 38.64249
38.54000, 37.26300
38.57000, 37.61649
38.60000, 36.43335
38.63000, 35.85483
38.66000, 35.16788
38.69000, 35.88626
38.72000, 36.16562
38.75000, 39.27396
38.78000, 37.29626
38.81000, 35.55252
38.84000, 33.30081
38.87000, 28.22208
38.90000, 24.94232
38.93000, 22.72253
38.96000, 21.77274
38.99000, 19.28094
39.02000, 20.13315
39.05000, 19.90936
39.08000, 19.42651
39.11000, 17.31671
39.14000, 16.37988
39.17000, 15.00406
39.20000, 15.85822
39.23000, 16.29144
39.26000, 16.79163
39.29000, 16.78284
39.32000, 15.30502
39.35000, 12.62927
39.38000, 9.268524
39.41000, 10.32477
39.44000, 8.070343
39.47000, 9.204224
39.50000, 6.882385
39.53000, 8.794525
39.56000, 8.911438
39.59000, 9.100220
39.62000, 5.970612
39.65000, 5.424683
39.68000, 4.122894
39.71000, 6.200256
39.74000, 12.40250
39.77000, 17.48776
39.80000, 15.29913
39.83000, 15.20929
39.86000, 15.39178
39.89000, 14.81787
39.92000, 10.55914
39.95000, 10.52737
39.98000, 9.588013
40.01000, 7.573822
40.04000, 8.403381
40.07000, 9.358734
40.10000, 9.927185
40.13000, 13.93515
40.16000, 18.15826
40.19000, 20.68243
40.22000, 17.22672
40.25000, 15.43311
40.28000, 13.50562
40.31000, 13.90384
40.34000, 11.15494
40.37000, 16.26974
40.40000, 18.06168
40.43000, 19.30774
40.46000, 18.56390
40.49000, 21.75418
40.52000, 22.75458
40.55000, 22.10010
40.58000, 23.31577
40.61000, 23.10657
40.64000, 21.65250
40.67000, 20.83160
40.70000, 20.21780
40.73000, 20.14920
40.76000, 16.91571
40.79000, 14.49039
40.82000, 16.00323
40.85000, 16.85724
40.88000, 20.93042
40.91000, 22.63974
40.94000, 21.10641
40.97000, 20.84479
41.00000, 21.23587
41.03000, 18.43399
41.06000, 15.13129
41.09000, 11.30627
41.12000, 9.849518
41.15000, 14.04938
41.18000, 18.00555
41.21000, 17.21750
41.24000, 13.86816
41.27000, 13.94623
41.30000, 16.68237
41.33000, 19.40381
41.36000, 22.68903
41.39000, 26.78046
41.42000, 28.38458
41.45000, 28.21933
41.48000, 29.48230
41.51000, 27.10980
41.54000, 21.98853
41.57000, 27.07498
41.60000, 29.61179
41.63000, 29.70126
41.66000, 20.01492
41.69000, 22.95193
41.72000, 20.82974
41.75000, 18.50000
41.78000, 23.21332
41.81000, 14.94785
41.84000, 19.66000
41.87000, 19.54269
41.90000, 21.97836
41.93000, 19.38800
41.96000, 18.08728
41.99000, 17.60959
42.02000, 15.74771
42.05000, 19.75763
42.08000, 22.29233
42.11000, 22.74777
42.14000, 19.56232
42.17000, 13.86832
42.20000, 13.99609
42.23000, 12.70264
42.26000, 9.318970
42.29000, 11.09604
42.32000, 11.26300
42.35000, 11.44571
42.38000, 14.46423
42.41000, 13.88455
42.44000, 14.67969
42.47000, 17.69763
42.50000, 17.28543
42.53000, 18.86252
42.56000, 15.46143
42.59000, 21.22272
42.62000, 22.02280
42.65000, 24.54074
42.68000, 28.39349
42.71000, 30.09109
42.74000, 30.94257
42.77000, 34.76990
42.80000, 36.60239
42.83000, 42.22812
42.86000, 43.03604
42.89000, 45.93085
42.92000, 51.04550
42.95000, 56.09805
42.98000, 60.27805
43.01000, 65.31137
43.04000, 66.77325
43.07000, 69.42480
43.10000, 75.49442
43.13000, 75.57019
43.16000, 75.74146
43.19000, 71.19836
43.22000, 63.10361
43.25000, 61.61224
43.28000, 63.99551
43.31000, 66.08075
43.34000, 71.37399
43.37000, 73.48376
43.40000, 73.40540
43.43000, 70.51273
43.46000, 67.59839
43.49000, 61.91275
43.52000, 58.66849
43.55000, 59.26608
43.58000, 56.84552
43.61000, 55.26584
43.64000, 52.80420
43.67000, 51.63907
43.70000, 55.62711
43.73000, 56.10416
43.76000, 56.65652
43.79000, 57.93170
43.82000, 57.64169
43.85000, 55.88153
43.88000, 53.56830
43.91000, 52.04184
43.94000, 55.52124
43.97000, 62.54352
44.00000, 70.10464
44.03000, 72.74496
44.06000, 77.27136
44.09000, 80.71890
44.12000, 83.11481
44.15000, 83.03442
44.18000, 84.83261
44.21000, 85.07141
44.24000, 84.69409
44.27000, 89.40134
44.30000, 85.52234
44.33000, 82.40717
44.36000, 77.01797
44.39000, 79.18466
44.42000, 80.04422
44.45000, 73.86975
44.48000, 68.58017
44.51000, 65.12753
44.54000, 59.50507
44.57000, 58.26273
44.60000, 56.68634
44.63000, 54.56189
44.66000, 49.33102
44.69000, 46.01224
44.72000, 41.54355
44.75000, 36.44577
44.78000, 32.33267
44.81000, 27.68585
44.84000, 23.48746
44.87000, 21.15048
44.90000, 22.45187
44.93000, 24.81400
44.96000, 24.85809
44.99000, 20.95746
45.02000, 18.36096
45.05000, 17.79230
45.08000, 16.03210
45.11000, 12.57465
45.14000, 9.876984
45.17000, 9.195496
45.20000, 5.833954
45.23000, 2.390350
45.26000, 2.502747
45.29000, 3.318054
45.32000, 5.383331
45.35000, 3.613525
45.38000, 2.492737
45.41000, 2.026154
45.44000, 6.897186
45.47000, 10.10989
45.50000, 11.11798
45.53000, 6.608032
45.56000, 0.2984010
45.59000, 3.703644
45.62000, 3.501831
45.65000, 3.669983
45.68000, 3.122070
45.71000, 2.142120
45.74000, 3.318542
45.77000, 7.275024
45.80000, 5.570862
45.83000, 8.352692
45.86000, 10.18542
45.89000, 9.939178
45.92000, 9.145813
45.95000, 8.487396
45.98000, 13.05090
46.01000, 18.55042
46.04000, 18.28085
46.07000, 18.89224
46.10000, 13.10257
46.13000, 9.432861
46.16000, 14.27808
46.19000, 19.58023
46.22000, 21.96130
46.25000, 21.29636
46.28000, 24.32138
46.31000, 25.08630
46.34000, 24.72617
46.37000, 26.99600
46.40000, 29.71976
46.43000, 29.30847
46.46000, 29.46115
46.49000, 28.77271
46.52000, 25.26328
46.55000, 24.40775
46.58000, 23.22318
46.61000, 25.30353
46.64000, 25.15891
46.67000, 23.70526
46.70000, 22.11963
46.73000, 20.20337
46.76000, 14.76624
46.79000, 14.38348
46.82000, 11.78482
46.85000, 6.936188
46.88000, 5.865936
46.91000, 2.431641
46.94000, 0.9788210
46.97000, 1.984802
47.00000, 4.453857
47.03000, 4.945648
47.06000, 4.406372
47.09000, 1.330872
47.12000, 0.1105350
47.15000, 0.6206670
47.18000, 0.5194090
47.21000, 1.351135
47.24000, 3.170929
47.27000, 1.075775
47.30000, 2.159393
47.33000, 3.526459
47.36000, 7.553467
47.39000, 13.71078
47.42000, 16.20914
47.45000, 18.25171
47.48000, 12.86432
47.51000, 6.908905
47.54000, 3.641388
47.57000, 4.866852
47.60000, 9.018219
47.63000, 10.77255
47.66000, 13.06683
47.69000, 14.31906
47.72000, 12.96521
47.75000, 15.33185
47.78000, 11.94144
47.81000, 16.79144
47.84000, 15.55240
47.87000, 14.07928
47.90000, 15.64517
47.93000, 17.54297
47.96000, 22.94870
47.99000, 26.45038
48.02000, 23.08603
48.05000, 18.70966
48.08000, 19.42120
48.11000, 19.04858
48.14000, 16.35052
48.17000, 20.07928
48.20000, 22.45374
48.23000, 18.98148
48.26000, 17.81049
48.29000, 21.21176
48.32000, 20.93274
48.35000, 23.83340
48.38000, 26.97607
48.41000, 25.60361
48.44000, 25.33801
48.47000, 25.92517
48.50000, 26.60880
48.53000, 27.29074
48.56000, 26.79413
48.59000, 28.92191
48.62000, 25.04086
48.65000, 22.74850
48.68000, 21.55185
48.71000, 23.05286
48.74000, 25.09457
48.77000, 26.61298
48.80000, 24.72998
48.83000, 20.62271
48.86000, 18.89810
48.89000, 18.35217
48.92000, 17.37695
48.95000, 12.34137
48.98000, 9.921509
49.01000, 10.60544
49.04000, 11.13519
49.07000, 10.23099
49.10000, 11.75040
49.13000, 10.65494
49.16000, 10.84897
49.19000, 13.07935
49.22000, 13.80051
49.25000, 14.10336
49.28000, 14.61966
49.31000, 14.05157
49.34000, 13.87299
49.37000, 12.95224
49.40000, 11.63431
49.43000, 10.74820
49.46000, 7.753906
49.49000, 9.546448
49.52000, 14.04080
49.55000, 12.91495
49.58000, 12.06998
49.61000, 17.46280
49.64000, 18.13745
49.67000, 17.45792
49.70000, 18.29022
49.73000, 18.83740
49.76000, 14.66632
49.79000, 13.96112
49.82000, 11.25375
49.85000, 8.150208
49.88000, 7.935486
49.91000, 6.879608
49.94000, 5.592560
49.97000, 6.200348
50.00000, 5.642975
50.03000, 7.106445
50.06000, 5.997742
50.09000, 10.40591
50.12000, 14.05188
50.15000, 15.33472
50.18000, 16.35141
50.21000, 15.01089
50.24000, 10.69528
50.27000, 7.166473
50.30000, 8.758514
50.33000, 11.71240
50.36000, 13.09912
50.39000, 13.58972
50.42000, 15.43411
50.45000, 17.34442
50.48000, 17.46454
50.51000, 18.02155
50.54000, 19.59076
50.57000, 19.71188
50.60000, 21.95215
50.63000, 20.40170
50.66000, 16.46948
50.69000, 14.78656
50.72000, 18.22556
50.75000, 21.62549
50.78000, 22.81281
50.81000, 25.78854
50.84000, 25.56732
50.87000, 28.66724
50.90000, 31.93756
50.93000, 30.93079
50.96000, 26.13428
50.99000, 23.14380
51.02000, 22.93701
51.05000, 19.79041
51.08000, 18.13483
51.11000, 18.05325
51.14000, 14.62262
51.17000, 16.50198
51.20000, 16.06430
51.23000, 13.98660
51.26000, 13.83786
51.29000, 13.84708
51.32000, 11.05728
51.35000, 8.379456
51.38000, 9.514618
51.41000, 6.557739
51.44000, 4.737915
51.47000, 8.175995
51.50000, 8.738037
51.53000, 10.50815
51.56000, 10.59491
51.59000, 10.72195
51.62000, 9.264923
51.65000, 1.477966
51.68000, 0.5630490
51.71000, 0.6343690
51.74000, 3.207214
51.77000, 2.838745
51.80000, 0.8739320
51.83000, 4.210785
51.86000, 2.691071
51.89000, 1.368958
51.92000, 1.129761
51.95000, 0.9726870
51.98000, 4.081085
52.01000, 5.295502
52.04000, 2.241882
52.07000, 3.425690
52.10000, 6.518158
52.13000, 1.207275
52.16000, 6.605835
52.19000, 6.594971
52.22000, 9.531982
52.25000, 3.275696
52.28000, 8.984528
52.31000, 7.781433
52.34000, 5.101410
52.37000, 6.866394
52.40000, 10.18744
52.43000, 8.931488
52.46000, 6.778687
52.49000, 2.686890
52.52000, 5.526215
52.55000, 3.972382
52.58000, 7.706055
52.61000, 6.474182
52.64000, 7.864166
52.67000, 17.42242
52.70000, 19.83350
52.73000, 21.74341
52.76000, 23.17789
52.79000, 22.71176
52.82000, 24.70007
52.85000, 25.70486
52.88000, 26.67041
52.91000, 17.84540
52.94000, 17.79568
52.97000, 15.53430
53.00000, 17.04797
53.03000, 17.55078
53.06000, 13.95267
53.09000, 14.02768
53.12000, 17.77777
53.15000, 19.52701
53.18000, 20.50235
53.21000, 18.71689
53.24000, 14.81161
53.27000, 9.835388
53.30000, 14.34634
53.33000, 14.66836
53.36000, 15.12350
53.39000, 18.76077
53.42000, 21.29419
53.45000, 22.43106
53.48000, 24.76816
53.51000, 25.92944
53.54000, 29.76382
53.57000, 27.25937
53.60000, 25.22003
53.63000, 16.72186
53.66000, 9.148834
53.69000, 11.76694
53.72000, 20.12421
53.75000, 24.74261
53.78000, 26.04620
53.81000, 23.45596
53.84000, 20.47879
53.87000, 19.46487
53.90000, 21.97211
53.93000, 22.56750
53.96000, 20.08005
53.99000, 18.29279
54.02000, 17.58466
54.05000, 20.63171
54.08000, 21.65799
54.11000, 19.03442
54.14000, 19.89908
54.17000, 12.95462
54.20000, 10.01068
54.23000, 6.882385
54.26000, 3.707642
54.29000, 6.329590
54.32000, 8.152832
54.35000, 8.768433
54.38000, 9.362488
54.41000, 8.190430
54.44000, 2.283295
54.47000, 4.748016
54.50000, 0.4248960
54.53000, 1.119049
54.56000, 1.3855000E-02
54.59000, 0.9650880
54.62000, 0.1117550
54.65000, 2.300079
54.68000, 1.028656
54.71000, 2.464386
54.74000, 5.635345
54.77000, 5.732574
54.80000, 6.544952
54.83000, 4.174591
54.86000, 4.267395
54.89000, 6.340454
54.92000, 8.075775
54.95000, 8.186279
54.98000, 13.98401
55.01000, 13.91800
55.04000, 10.02316
55.07000, 10.18460
55.10000, 3.687469
55.13000, 1.774170
55.16000, 8.441681
55.19000, 12.17300
55.22000, 16.64761
55.25000, 18.80042
55.28000, 17.69553
55.31000, 17.58734
55.34000, 14.78247
55.37000, 13.96716
55.40000, 15.11270
55.43000, 14.41119
55.46000, 16.72260
55.49000, 16.75345
55.52000, 14.55377
55.55000, 15.30225
55.58000, 13.07944
55.61000, 15.98212
55.64000, 9.037567
55.67000, 4.510712
55.70000, 1.460541
55.73000, 2.982574
55.76000, 10.09335
55.79000, 13.71408
55.82000, 11.65836
55.85000, 8.545197
55.88000, 6.304413
55.91000, 8.140961
55.94000, 7.985901
55.97000, 9.012177
56.00000, 9.235443
56.03000, 9.806702
56.06000, 7.891113
56.09000, 6.072815
56.12000, 4.480194
56.15000, 9.320648
56.18000, 17.92056
56.21000, 19.26080
56.24000, 19.68347
56.27000, 13.24442
56.30000, 9.451721
56.33000, 6.370087
56.36000, 2.736053
56.39000, 2.632355
56.42000, 4.457031
56.45000, 5.944214
56.48000, 5.779846
56.51000, 9.282135
56.54000, 5.837341
56.57000, 5.760681
56.60000, 5.573334
56.63000, 2.282379
56.66000, 4.780731
56.69000, 8.593445
56.72000, 9.461884
56.75000, 9.771240
56.78000, 4.134979
56.81000, 6.137115
56.84000, 6.763519
56.87000, 11.33234
56.90000, 11.69568
56.93000, 12.00363
56.96000, 14.79489
56.99000, 12.28812
57.02000, 14.52640
57.05000, 17.55786
57.08000, 16.92419
57.11000, 19.28189
57.14000, 24.03098
57.17000, 25.95038
57.20000, 25.05515
57.23000, 29.36832
57.26000, 27.64691
57.29000, 25.06384
57.32000, 26.74817
57.35000, 23.34390
57.38000, 18.48505
57.41000, 16.62857
57.44000, 14.57748
57.47000, 17.57281
57.50000, 13.76157
57.53000, 13.72369
57.56000, 17.49228
57.59000, 15.59528
57.62000, 11.98672
57.65000, 11.28458
57.68000, 8.395874
57.71000, 8.826691
57.74000, 12.47794
57.77000, 9.686615
57.80000, 9.106812
57.83000, 17.57651
57.86000, 19.90894
57.89000, 14.14493
57.92000, 12.48935
57.95000, 12.98203
57.98000, 14.03009
58.01000, 8.539459
58.04000, 1.824982
58.07000, 0.2056270
58.10000, 0.3504940
58.13000, 0.9372250
58.16000, 1.490723
58.19000, 0.3735660
58.22000, 1.319733
58.25000, 4.046295
58.28000, 4.829834
58.31000, 8.028564
58.34000, 6.697418
58.37000, 5.669342
58.40000, 5.193634
58.43000, 7.265320
58.46000, 11.15436
58.49000, 11.63174
58.52000, 7.166565
58.55000, 4.571716
58.58000, 6.209229
58.61000, 6.927155
58.64000, 2.683472
58.67000, 0.1319270
58.70000, 3.473846
58.73000, 1.284943
58.76000, 3.588043
58.79000, 1.431305
58.82000, 7.778992
58.85000, 13.27197
58.88000, 14.81558
58.91000, 13.92349
58.94000, 13.76257
58.97000, 11.86990
59.00000, 6.870789
59.03000, 5.064087
59.06000, 5.094269
59.09000, 2.840332
59.12000, 6.648163
59.15000, 9.727295
59.18000, 9.210693
59.21000, 9.811462
59.24000, 9.069641
59.27000, 6.601135
59.30000, 5.498047
59.33000, 3.137756
59.36000, 0.9041140
59.39000, 0.1388240
59.42000, 2.370178
59.45000, 0.8203740
59.48000, 2.009308
59.51000, 2.578674
59.54000, 4.013397
59.57000, 8.0504999E-02
59.60000, 3.6102001E-02
59.63000, 1.081696
59.66000, 0.1900940
59.69000, 4.0649001E-02
59.72000, 0.1381840
59.75000, 0.2586060
59.78000, 0.3063660
59.81000, 9.5702998E-02
59.84000, 0.2019350
59.87000, 1.065521
59.90000, 0.9314880
59.93000, 2.172699
59.96000, 1.687256
59.99000, 1.492859
60.02000, 3.950348
60.05000, 1.002686
60.08000, 0.7389220
60.11000, 1.133209
60.14000, 2.867706
60.17000, 2.971100
60.20000, 6.244873
60.23000, 9.945801
60.26000, 1.531525
60.29000, 0.2232970
60.32000, 0.6789250
60.35000, 0.6138920
60.38000, 1.458649
60.41000, 6.666779
60.44000, 8.161499
60.47000, 4.381744
60.50000, 0.5805660
60.53000, 4.303009
60.56000, 3.245056
60.59000, 1.863281
60.62000, 0.8652950
60.65000, 5.484222
60.68000, 10.70142
60.71000, 5.431305
60.74000, 2.978912
60.77000, 5.934235
60.80000, 1.637390
60.83000, 4.558350
60.86000, 13.28717
60.89000, 13.40173
60.92000, 10.88620
60.95000, 15.79462
60.98000, 16.42502
61.01000, 14.45346
61.04000, 15.11792
61.07000, 11.43759
61.10000, 8.798462
61.13000, 9.503571
61.16000, 8.820007
61.19000, 5.832916
61.22000, 5.651337
61.25000, 4.941437
61.28000, 7.605286
61.31000, 10.95410
61.34000, 9.502747
61.37000, 12.86606
61.40000, 19.43402
61.43000, 20.34119
61.46000, 19.06763
61.49000, 18.39194
61.52000, 17.40289
61.55000, 18.87915
61.58000, 18.40506
61.61000, 17.03683
61.64000, 10.63397
61.67000, 8.343750
61.70000, 12.33447
61.73000, 16.30191
61.76000, 17.88202
61.79000, 16.67587
61.82000, 17.19843
61.85000, 14.50467
61.88000, 12.26865
61.91000, 9.277039
61.94000, 6.926910
61.97000, 4.979767
62.00000, 1.563385
62.03000, 5.491699
62.06000, 9.088776
62.09000, 8.906586
62.12000, 7.323090
62.15000, 11.58130
62.18000, 16.78323
62.21000, 13.33786
62.24000, 12.02133
62.27000, 10.80246
62.30000, 9.812622
62.33000, 4.336456
62.36000, 9.846252
62.39000, 13.01328
62.42000, 14.08008
62.45000, 9.791245
62.48000, 6.656525
62.51000, 4.912064
62.54000, 4.920944
62.57000, 4.809570
62.60000, 7.185226
62.63000, 7.820160
62.66000, 8.889572
62.69000, 10.69055
62.72000, 11.01907
62.75000, 10.81068
62.78000, 9.351471
62.81000, 9.406342
62.84000, 9.220779
62.87000, 8.491272
62.90000, 7.145615
62.93000, 6.910477
62.96000, 7.798767
62.99000, 4.865509
63.02000, 1.294617
63.05000, 4.781113
63.08000, 5.505951
63.11000, 9.643036
63.14000, 17.43530
63.17000, 21.07069
63.20000, 18.62904
63.23000, 14.83224
63.26000, 12.71112
63.29000, 10.76620
63.32000, 6.670151
63.35000, 1.788696
63.38000, 5.965607
63.41000, 11.54448
63.44000, 9.182892
63.47000, 13.09178
63.50000, 17.93210
63.53000, 17.36427
63.56000, 12.00372
63.59000, 8.560852
63.62000, 5.699600
63.65000, 12.08495
63.68000, 12.72641
63.71000, 7.654282
63.74000, 10.67720
63.77000, 8.101517
63.80000, 0.3427580
63.83000, 1.536163
63.86000, 1.459122
63.89000, 7.7225000E-02
63.92000, 4.555359
63.95000, 9.866852
63.98000, 14.25232
64.01000, 16.04276
64.04000, 13.10570
64.07000, 6.085419
64.10000, 0.9290160
64.13000, 7.162781
64.16000, 11.66093
64.19000, 9.545883
64.22000, 13.70114
64.25000, 12.68407
64.28000, 8.080933
64.31000, 13.33318
64.34000, 12.12505
64.37000, 8.871002
64.40000, 5.544708
64.43000, 2.468582
64.46000, 4.029388
64.49000, 5.674789
64.52000, 7.422318
64.55000, 8.613373
64.58000, 13.72827
64.61000, 17.29796
64.64000, 13.03963
64.67000, 9.770660
64.70000, 5.399536
64.73000, 6.289993
64.76000, 9.857986
64.79000, 9.930801
64.82000, 6.299942
64.85000, 6.281494
64.88000, 5.348312
64.91000, 3.069778
64.94000, 7.324570
64.97000, 3.948196
65.00000, 0.1855620
65.03000, 2.074219
65.06000, 7.240479
65.09000, 0.0000000E+00
##END=



