##NAMES=Troilite
##RRUFFID=R070242
##IDEAL CHEMISTRY=Fe^2+^S^2-^
##LOCALITY=Union Mine (Salt Lake-California Mine), Low Divide District, Del Norte County, California, USA
##OWNER=RRUFF
##SOURCE=Michael Scott
##DESCRIPTION=Fine grained massive, brownish-gray with metallic luster
##DIFFRACTION SAMPLE DESCRIPTION=Powder, using Mo radiation
##STATUS=The identification of this mineral has been confirmed by X-ray diffraction.
##URL=rruff.info/R070242
##CELL PARAMETERS=a: 5.954(2) b: 5.954(2) c: 11.799(4) alpha: 90 beta: 90 gamma: 120 volume: 362.3(3) crystal system: hexagonal
5.340000, 0.0000000E+00
5.370000, 1.7286001E-02
5.400000, 0.3198770
5.430000, 2.435419
5.460000, 0.6741490
5.490000, 4.704225
5.520000, 6.302406
5.550000, 2.305781
5.580000, 1.217649
5.610000, 4.682116
5.640000, 8.980755
5.670000, 13.23303
5.700000, 17.14894
5.730000, 21.40966
5.760000, 19.96161
5.790000, 10.76991
5.820000, 1.567640
5.850000, 0.5699150
5.880000, 0.3667400
5.910000, 2.509307
5.940000, 4.511990
5.970000, 4.061333
6.000000, 3.463089
6.030000, 2.765183
6.060000, 1.947841
6.090000, 0.5184490
6.120000, 1.549094
6.150000, 0.1716500
6.180000, 2.383713
6.210000, 7.999639
6.240000, 10.42742
6.270000, 12.82024
6.300000, 9.386127
6.330000, 8.715273
6.360000, 8.834888
6.390000, 9.803166
6.420000, 13.74545
6.450000, 16.51931
6.480000, 16.90826
6.510000, 17.52201
6.540000, 15.60233
6.570000, 10.40803
6.600000, 12.96593
6.630000, 11.90093
6.660000, 7.391821
6.690000, 8.421091
6.720000, 11.47173
6.750000, 15.48485
6.780000, 18.41705
6.810000, 18.44743
6.840000, 19.54008
6.870000, 18.85294
6.900000, 18.31494
6.930000, 22.88000
6.960000, 27.30004
6.990000, 30.14200
7.020000, 31.81907
7.050000, 28.97717
7.080000, 34.86194
7.110000, 39.39836
7.140000, 41.72954
7.170000, 43.05740
7.200000, 48.41593
7.230000, 54.54615
7.260000, 56.40996
7.290000, 70.25792
7.320000, 86.73920
7.350000, 98.04577
7.380000, 107.1847
7.410000, 105.7197
7.440000, 100.4315
7.470000, 99.81631
7.500000, 100.6725
7.530000, 99.55151
7.560000, 94.74381
7.590000, 88.99255
7.620000, 84.69790
7.650000, 79.49194
7.680000, 71.59271
7.710000, 62.47626
7.740000, 50.75573
7.770000, 45.24818
7.800000, 40.04157
7.830000, 34.36795
7.860000, 27.01641
7.890000, 23.15088
7.920000, 25.41743
7.950000, 30.09107
7.980000, 32.55474
8.010000, 28.34549
8.040000, 23.86175
8.070000, 24.25354
8.100000, 21.94884
8.130000, 21.36413
8.160000, 22.98348
8.190000, 24.34584
8.220000, 18.79458
8.250000, 12.70471
8.280000, 9.210415
8.310000, 8.681469
8.340000, 3.270545
8.370000, 4.028649
8.400000, 19.43077
8.430000, 27.39585
8.460000, 25.64589
8.490000, 21.99587
8.520000, 21.02474
8.550000, 23.19749
8.580000, 26.23306
8.610000, 29.02845
8.640000, 28.54161
8.670000, 24.41249
8.700000, 21.98096
8.730000, 18.61403
8.760000, 20.64178
8.790000, 24.21612
8.820000, 28.66908
8.850000, 28.40459
8.880000, 21.92468
8.910000, 15.69825
8.940000, 16.67772
8.970000, 14.93684
9.000000, 14.75766
9.030000, 13.02043
9.060000, 9.892485
9.090000, 9.113503
9.120000, 12.63508
9.150000, 13.71529
9.180000, 14.05055
9.210000, 10.55697
9.240000, 10.43733
9.270000, 14.04703
9.300000, 13.55209
9.330000, 14.40632
9.360000, 13.99205
9.390000, 16.67159
9.420000, 20.26138
9.450000, 19.38152
9.480000, 16.26801
9.510000, 17.25939
9.540000, 20.20111
9.570000, 22.71742
9.600000, 24.60731
9.630000, 21.24621
9.660000, 14.49202
9.690000, 10.49751
9.720000, 9.595589
9.750000, 8.563791
9.780000, 7.568289
9.810000, 5.974301
9.840000, 4.045744
9.870000, 4.477597
9.900000, 7.987790
9.930000, 10.11242
9.960000, 12.42593
9.990000, 12.78218
10.02000, 8.824531
10.05000, 3.758685
10.08000, 1.962729
10.11000, 0.5789930
10.14000, 2.675309
10.17000, 7.662191
10.20000, 9.727008
10.23000, 7.429756
10.26000, 6.577427
10.29000, 7.168136
10.32000, 4.908175
10.35000, 4.041377
10.38000, 5.916812
10.41000, 4.566525
10.44000, 1.720561
10.47000, 0.1286550
10.50000, 3.527372
10.53000, 8.400681
10.56000, 7.837556
10.59000, 4.149005
10.62000, 2.186946
10.65000, 1.832376
10.68000, 2.082272
10.71000, 0.3846080
10.74000, 1.470657
10.77000, 0.2976680
10.80000, 4.056785
10.83000, 6.263755
10.86000, 7.117871
10.89000, 6.831115
10.92000, 5.521509
10.95000, 6.355266
10.98000, 6.521773
11.01000, 1.310755
11.04000, 1.034718
11.07000, 3.476425
11.10000, 2.136768
11.13000, 1.055265
11.16000, 5.668038
11.19000, 9.168234
11.22000, 7.770528
11.25000, 5.685783
11.28000, 2.804234
11.31000, 4.002919
11.34000, 7.022791
11.37000, 10.67096
11.40000, 11.60730
11.43000, 8.245828
11.46000, 4.203502
11.49000, 2.437314
11.52000, 5.727260
11.55000, 5.461294
11.58000, 4.475419
11.61000, 4.110607
11.64000, 3.870657
11.67000, 7.866697
11.70000, 9.209767
11.73000, 6.960866
11.76000, 7.115938
11.79000, 5.838829
11.82000, 4.668540
11.85000, 5.017152
11.88000, 2.017661
11.91000, 0.6060390
11.94000, 3.183285
11.97000, 5.181366
12.00000, 3.121303
12.03000, 2.257048
12.06000, 0.8444290
12.09000, 0.2747770
12.12000, 1.437718
12.15000, 2.170434
12.18000, 4.262855
12.21000, 4.961029
12.24000, 7.714869
12.27000, 7.350383
12.30000, 6.056464
12.33000, 3.097196
12.36000, 2.159539
12.39000, 6.307526
12.42000, 16.39711
12.45000, 24.22127
12.48000, 25.94701
12.51000, 25.09630
12.54000, 24.89852
12.57000, 24.17383
12.60000, 24.42515
12.63000, 24.37246
12.66000, 25.23977
12.69000, 23.12606
12.72000, 22.72436
12.75000, 19.88562
12.78000, 14.31088
12.81000, 14.34820
12.84000, 17.79553
12.87000, 17.86282
12.90000, 18.05013
12.93000, 15.79643
12.96000, 13.08268
12.99000, 9.903890
13.02000, 9.791057
13.05000, 8.755853
13.08000, 11.86716
13.11000, 16.65195
13.14000, 20.54539
13.17000, 18.55182
13.20000, 11.29073
13.23000, 6.867144
13.26000, 5.293344
13.29000, 3.364461
13.32000, 5.957894
13.35000, 13.08951
13.38000, 18.27292
13.41000, 25.33533
13.44000, 34.80357
13.47000, 44.66351
13.50000, 52.89277
13.53000, 57.09755
13.56000, 63.60141
13.59000, 69.03132
13.62000, 69.38258
13.65000, 67.26525
13.68000, 64.93939
13.71000, 69.66351
13.74000, 77.02993
13.77000, 85.91022
13.80000, 97.64685
13.83000, 106.9086
13.86000, 113.3037
13.89000, 114.7173
13.92000, 105.6208
13.95000, 89.59640
13.98000, 72.45583
14.01000, 54.85415
14.04000, 39.56422
14.07000, 28.47684
14.10000, 18.73569
14.13000, 13.38677
14.16000, 9.193386
14.19000, 8.964871
14.22000, 7.992533
14.25000, 5.296346
14.28000, 2.753296
14.31000, 2.848414
14.34000, 4.378430
14.37000, 2.919158
14.40000, 0.7081030
14.43000, 2.813744
14.46000, 3.298687
14.49000, 3.032093
14.52000, 0.1681810
14.55000, 2.348307
14.58000, 0.7563690
14.61000, 0.1893580
14.64000, 1.864846
14.67000, 2.601172
14.70000, 2.220976
14.73000, 0.8279450
14.76000, 0.2074450
14.79000, 0.3766770
14.82000, 0.2615890
14.85000, 1.751359
14.88000, 4.598423
14.91000, 3.034202
14.94000, 3.696605
14.97000, 4.999702
15.00000, 4.962413
15.03000, 9.360784
15.06000, 14.77274
15.09000, 23.36432
15.12000, 34.46047
15.15000, 44.19120
15.18000, 53.56549
15.21000, 60.04634
15.24000, 65.50773
15.27000, 70.70266
15.30000, 75.50410
15.33000, 76.84902
15.36000, 77.63545
15.39000, 76.59134
15.42000, 73.01376
15.45000, 74.53360
15.48000, 79.65189
15.51000, 80.41862
15.54000, 77.80277
15.57000, 70.80635
15.60000, 59.74330
15.63000, 49.62267
15.66000, 41.37799
15.69000, 32.96912
15.72000, 27.46558
15.75000, 23.40442
15.78000, 18.90961
15.81000, 15.50416
15.84000, 13.41208
15.87000, 12.43527
15.90000, 15.77577
15.93000, 18.06757
15.96000, 18.40160
15.99000, 21.32690
16.02000, 25.07245
16.05000, 26.18426
16.08000, 27.67327
16.11000, 27.24152
16.14000, 25.49197
16.17000, 23.00561
16.20000, 20.50142
16.23000, 19.35938
16.26000, 19.41452
16.29000, 18.50780
16.32000, 20.79320
16.35000, 21.25071
16.38000, 18.47533
16.41000, 18.21404
16.44000, 16.08581
16.47000, 11.86867
16.50000, 11.27654
16.53000, 10.87449
16.56000, 7.468449
16.59000, 4.765409
16.62000, 4.241404
16.65000, 4.069356
16.68000, 7.4716002E-02
16.71000, 0.6873320
16.74000, 1.218265
16.77000, 0.1778490
16.80000, 0.3390090
16.83000, 3.149999
16.86000, 5.524885
16.89000, 4.700090
16.92000, 3.277892
16.95000, 3.609022
16.98000, 3.564015
17.01000, 3.685291
17.04000, 2.437693
17.07000, 0.1347700
17.10000, 1.473827
17.13000, 0.7135150
17.16000, 2.115184
17.19000, 1.081235
17.22000, 1.533882
17.25000, 3.073544
17.28000, 2.421187
17.31000, 3.2752998E-02
17.34000, 1.206052
17.37000, 2.962355
17.40000, 0.4249540
17.43000, 8.7383002E-02
17.46000, 1.053614
17.49000, 0.6653070
17.52000, 0.8773290
17.55000, 1.077926
17.58000, 0.7502230
17.61000, 0.6527000
17.64000, 1.420893
17.67000, 1.905085
17.70000, 1.772848
17.73000, 0.7811880
17.76000, 1.929088
17.79000, 4.500531
17.82000, 4.032511
17.85000, 3.106057
17.88000, 3.011113
17.91000, 2.157686
17.94000, 0.4169440
17.97000, 0.1965710
18.00000, 0.6885760
18.03000, 0.1795810
18.06000, 0.4799140
18.09000, 0.4696980
18.12000, 0.2900540
18.15000, 3.395110
18.18000, 2.992218
18.21000, 2.674167
18.24000, 0.7307180
18.27000, 0.3917540
18.30000, 0.2466440
18.33000, 0.5289690
18.36000, 0.6758780
18.39000, 0.7270090
18.42000, 1.136137
18.45000, 2.295460
18.48000, 1.392493
18.51000, 0.2689420
18.54000, 3.590678
18.57000, 5.405828
18.60000, 4.746377
18.63000, 3.605345
18.66000, 3.145709
18.69000, 4.006464
18.72000, 6.632600
18.75000, 9.131144
18.78000, 8.712056
18.81000, 9.449358
18.84000, 10.02002
18.87000, 14.27505
18.90000, 18.27846
18.93000, 19.81722
18.96000, 23.67034
18.99000, 29.83684
19.02000, 34.90067
19.05000, 36.72988
19.08000, 39.46942
19.11000, 44.75132
19.14000, 47.62259
19.17000, 50.90118
19.20000, 60.25714
19.23000, 70.43503
19.26000, 87.04601
19.29000, 109.1181
19.32000, 139.0257
19.35000, 182.7192
19.38000, 230.9646
19.41000, 281.3143
19.44000, 339.0561
19.47000, 396.8030
19.50000, 451.7484
19.53000, 490.8770
19.56000, 518.7837
19.59000, 527.2130
19.62000, 517.9166
19.65000, 490.3864
19.68000, 445.2304
19.71000, 384.2799
19.74000, 323.0685
19.77000, 264.0914
19.80000, 208.3555
19.83000, 159.0090
19.86000, 120.1257
19.89000, 89.01871
19.92000, 68.21798
19.95000, 54.47447
19.98000, 44.16019
20.01000, 37.82619
20.04000, 31.66343
20.07000, 27.66192
20.10000, 26.91567
20.13000, 24.67964
20.16000, 20.42184
20.19000, 16.25830
20.22000, 14.19297
20.25000, 13.37190
20.28000, 13.26243
20.31000, 8.935091
20.34000, 4.680632
20.37000, 4.291821
20.40000, 3.808406
20.43000, 2.152446
20.46000, 2.016036
20.49000, 3.377943
20.52000, 2.476069
20.55000, 0.2467770
20.58000, 1.237776
20.61000, 2.705176
20.64000, 3.519063
20.67000, 4.085216
20.70000, 4.319867
20.73000, 3.962609
20.76000, 2.856010
20.79000, 4.317035
20.82000, 4.524462
20.85000, 2.944207
20.88000, 4.675183
20.91000, 6.165552
20.94000, 8.732319
20.97000, 9.615439
21.00000, 7.043417
21.03000, 7.777220
21.06000, 9.396459
21.09000, 9.693237
21.12000, 9.961554
21.15000, 10.51144
21.18000, 10.43763
21.21000, 10.35079
21.24000, 9.456837
21.27000, 11.20840
21.30000, 17.14764
21.33000, 17.08104
21.36000, 11.94308
21.39000, 11.98113
21.42000, 14.14467
21.45000, 13.22441
21.48000, 12.31446
21.51000, 13.45101
21.54000, 13.89032
21.57000, 14.71715
21.60000, 15.29659
21.63000, 14.94599
21.66000, 12.67739
21.69000, 11.51224
21.72000, 11.14522
21.75000, 11.60408
21.78000, 14.66736
21.81000, 16.34086
21.84000, 14.99018
21.87000, 12.97488
21.90000, 12.21111
21.93000, 14.36091
21.96000, 15.52035
21.99000, 15.12862
22.02000, 15.52344
22.05000, 15.22529
22.08000, 13.47138
22.11000, 12.44590
22.14000, 11.33026
22.17000, 10.81817
22.20000, 11.47461
22.23000, 12.60087
22.26000, 15.47509
22.29000, 14.90444
22.32000, 13.57013
22.35000, 14.16591
22.38000, 15.25706
22.41000, 12.77830
22.44000, 10.40340
22.47000, 8.362768
22.50000, 6.833611
22.53000, 7.091907
22.56000, 9.196712
22.59000, 8.676746
22.62000, 7.704229
22.65000, 5.357800
22.68000, 3.151484
22.71000, 2.993057
22.74000, 3.794817
22.77000, 4.094831
22.80000, 2.663699
22.83000, 2.532802
22.86000, 3.892270
22.89000, 2.576696
22.92000, 1.762468
22.95000, 1.199346
22.98000, 1.317217
23.01000, 2.999284
23.04000, 4.269128
23.07000, 4.778273
23.10000, 4.604572
23.13000, 3.537536
23.16000, 3.510113
23.19000, 5.161147
23.22000, 7.717922
23.25000, 9.556475
23.28000, 8.637099
23.31000, 9.937907
23.34000, 11.69220
23.37000, 10.53337
23.40000, 9.386633
23.43000, 11.05358
23.46000, 12.42031
23.49000, 16.03234
23.52000, 20.97606
23.55000, 22.54256
23.58000, 23.79127
23.61000, 23.73928
23.64000, 22.21770
23.67000, 20.65933
23.70000, 18.40879
23.73000, 18.15125
23.76000, 18.90934
23.79000, 19.09224
23.82000, 19.50230
23.85000, 20.35086
23.88000, 19.22321
23.91000, 18.03778
23.94000, 17.95683
23.97000, 18.18743
24.00000, 14.99150
24.03000, 12.40119
24.06000, 11.55902
24.09000, 9.046872
24.12000, 5.108695
24.15000, 1.988442
24.18000, 0.1021940
24.21000, 1.538000
24.24000, 0.3257860
24.27000, 1.137921
24.30000, 1.595535
24.33000, 1.142592
24.36000, 0.7187420
24.39000, 0.2660850
24.42000, 0.8613660
24.45000, 0.1357070
24.48000, 0.3310800
24.51000, 0.6562090
24.54000, 1.507954
24.57000, 1.187691
24.60000, 0.2699620
24.63000, 0.8780780
24.66000, 0.4373280
24.69000, 0.9180560
24.72000, 1.401033
24.75000, 1.135035
24.78000, 4.271208
24.81000, 7.305206
24.84000, 10.91622
24.87000, 15.11297
24.90000, 18.39736
24.93000, 21.64577
24.96000, 26.30514
24.99000, 32.44196
25.02000, 37.67691
25.05000, 41.47247
25.08000, 44.73273
25.11000, 45.40163
25.14000, 44.55025
25.17000, 42.17770
25.20000, 39.69455
25.23000, 37.13583
25.26000, 32.29255
25.29000, 28.92867
25.32000, 26.20819
25.35000, 22.94364
25.38000, 20.08693
25.41000, 18.58028
25.44000, 19.72192
25.47000, 21.72078
25.50000, 22.21113
25.53000, 22.08742
25.56000, 21.62142
25.59000, 22.59534
25.62000, 25.00349
25.65000, 24.05253
25.68000, 20.77097
25.71000, 19.89007
25.74000, 18.34348
25.77000, 17.03245
25.80000, 16.83058
25.83000, 15.89772
25.86000, 12.94993
25.89000, 12.46031
25.92000, 12.36915
25.95000, 10.20540
25.98000, 8.818090
26.01000, 7.949622
26.04000, 6.377944
26.07000, 7.661532
26.10000, 9.069942
26.13000, 8.495789
26.16000, 7.620663
26.19000, 8.542493
26.22000, 10.50745
26.25000, 11.47571
26.28000, 10.21859
26.31000, 10.79911
26.34000, 11.55817
26.37000, 8.689034
26.40000, 8.432310
26.43000, 10.00585
26.46000, 9.768353
26.49000, 9.542293
26.52000, 10.95705
26.55000, 11.02487
26.58000, 10.46116
26.61000, 8.665469
26.64000, 6.744959
26.67000, 6.170050
26.70000, 4.306653
26.73000, 3.094979
26.76000, 4.462669
26.79000, 5.296009
26.82000, 6.212077
26.85000, 8.147284
26.88000, 7.392323
26.91000, 4.962911
26.94000, 5.652254
26.97000, 5.792322
27.00000, 5.817822
27.03000, 7.222572
27.06000, 9.621036
27.09000, 8.266408
27.12000, 6.366995
27.15000, 7.659453
27.18000, 8.584218
27.21000, 10.58318
27.24000, 12.95028
27.27000, 13.66299
27.30000, 14.46142
27.33000, 17.06780
27.36000, 19.23100
27.39000, 18.00737
27.42000, 18.86709
27.45000, 19.92069
27.48000, 19.30996
27.51000, 19.44030
27.54000, 19.96279
27.57000, 21.16414
27.60000, 21.67528
27.63000, 21.65186
27.66000, 23.39013
27.69000, 27.94989
27.72000, 34.64859
27.75000, 43.81408
27.78000, 52.52427
27.81000, 61.02604
27.84000, 66.43373
27.87000, 68.26015
27.90000, 69.56187
27.93000, 68.94440
27.96000, 67.30322
27.99000, 63.38623
28.02000, 59.43752
28.05000, 55.30250
28.08000, 47.29750
28.11000, 39.01264
28.14000, 32.42648
28.17000, 23.44884
28.20000, 18.65538
28.23000, 15.20183
28.26000, 12.02800
28.29000, 12.28575
28.32000, 12.97397
28.35000, 12.19657
28.38000, 10.63870
28.41000, 9.465440
28.44000, 10.11739
28.47000, 9.548476
28.50000, 10.33719
28.53000, 12.94392
28.56000, 14.13057
28.59000, 12.56566
28.62000, 11.48708
28.65000, 10.86822
28.68000, 9.846582
28.71000, 8.178979
28.74000, 7.110016
28.77000, 7.093483
28.80000, 6.808565
28.83000, 6.109757
28.86000, 6.327974
28.89000, 6.794578
28.92000, 4.934502
28.95000, 4.450621
28.98000, 6.519561
29.01000, 5.887892
29.04000, 3.059605
29.07000, 1.084904
29.10000, 0.2870220
29.13000, 0.5274560
29.16000, 1.762361
29.19000, 3.347836
29.22000, 2.885498
29.25000, 1.130345
29.28000, 0.5879800
29.31000, 0.4544140
29.34000, 2.164649
29.37000, 1.265265
29.40000, 0.4687410
29.43000, 1.127929
29.46000, 1.191345
29.49000, 0.2090260
29.52000, 5.8118999E-02
29.55000, 0.2072540
29.58000, 0.3620900
29.61000, 0.4532220
29.64000, 1.004623
29.67000, 0.4167100
29.70000, 1.324276
29.73000, 1.939647
29.76000, 2.216735
29.79000, 1.307494
29.82000, 0.2588390
29.85000, 0.9961970
29.88000, 0.8233670
29.91000, 1.117199
29.94000, 0.5508980
29.97000, 4.4939000E-02
30.00000, 0.1575910
30.03000, 1.422575
30.06000, 2.403382
30.09000, 3.482310
30.12000, 2.722576
30.15000, 0.9922060
30.18000, 0.3961770
30.21000, 0.6473270
30.24000, 1.164980
30.27000, 3.411139
30.30000, 4.095047
30.33000, 2.938537
30.36000, 2.451602
30.39000, 2.328325
30.42000, 2.765502
30.45000, 1.674726
30.48000, 0.9635050
30.51000, 1.109322
30.54000, 1.563398
30.57000, 2.916924
30.60000, 3.287895
30.63000, 2.540029
30.66000, 5.004191
30.69000, 10.49048
30.72000, 12.81087
30.75000, 14.80170
30.78000, 17.69278
30.81000, 18.89291
30.84000, 18.93499
30.87000, 19.43068
30.90000, 20.37405
30.93000, 22.03896
30.96000, 27.97362
30.99000, 31.40833
31.02000, 35.48507
31.05000, 37.75169
31.08000, 41.07579
31.11000, 46.88213
31.14000, 51.07030
31.17000, 58.66233
31.20000, 62.07117
31.23000, 55.83088
31.26000, 51.13041
31.29000, 47.57178
31.32000, 45.57701
31.35000, 43.94410
31.38000, 38.54963
31.41000, 32.93153
31.44000, 28.58879
31.47000, 26.32479
31.50000, 21.82760
31.53000, 15.75913
31.56000, 12.39409
31.59000, 10.78376
31.62000, 10.02716
31.65000, 10.88879
31.68000, 11.94801
31.71000, 10.94232
31.74000, 11.03753
31.77000, 11.90259
31.80000, 12.05275
31.83000, 12.14683
31.86000, 13.47942
31.89000, 15.13452
31.92000, 12.96316
31.95000, 10.96367
31.98000, 8.251768
32.01000, 8.941743
32.04000, 11.18523
32.07000, 11.32588
32.10000, 11.68842
32.13000, 13.65041
32.16000, 14.38188
32.19000, 15.37763
32.22000, 17.83273
32.25000, 18.00502
32.28000, 18.77909
32.31000, 19.89172
32.34000, 19.47602
32.37000, 19.74560
32.40000, 19.11497
32.43000, 19.89516
32.46000, 20.38984
32.49000, 19.09521
32.52000, 17.13567
32.55000, 17.00790
32.58000, 15.99622
32.61000, 13.90955
32.64000, 11.02689
32.67000, 8.234235
32.70000, 6.585512
32.73000, 7.047550
32.76000, 6.553577
32.79000, 4.658037
32.82000, 1.537690
32.85000, 0.1992990
32.88000, 1.283286
32.91000, 2.355902
32.94000, 3.742484
32.97000, 2.589845
33.00000, 0.8868910
33.03000, 1.601874
33.06000, 2.828859
33.09000, 2.923261
33.12000, 2.355844
33.15000, 0.9488780
33.18000, 0.7204620
33.21000, 0.8028700
33.24000, 0.7675870
33.27000, 1.034400
33.30000, 0.6740980
33.33000, 1.528968
33.36000, 2.121607
33.39000, 2.420430
33.42000, 2.668440
33.45000, 1.839471
33.48000, 2.899395
33.51000, 3.551486
33.54000, 3.241763
33.57000, 3.036432
33.60000, 3.356952
33.63000, 2.384265
33.66000, 1.435072
33.69000, 2.016908
33.72000, 1.725570
33.75000, 2.976789
33.78000, 5.776914
33.81000, 5.232199
33.84000, 4.934559
33.87000, 5.318499
33.90000, 3.058948
33.93000, 2.741204
33.96000, 2.370501
33.99000, 0.8814830
34.02000, 0.6231050
34.05000, 1.224258
34.08000, 0.8316250
34.11000, 0.3263130
34.14000, 0.3095590
34.17000, 1.019351
34.20000, 0.5401380
34.23000, 6.9678001E-02
34.26000, 0.9521950
34.29000, 0.3874840
34.32000, 4.7563002E-02
34.35000, 0.4022280
34.38000, 0.2250820
34.41000, 1.120413
34.44000, 0.8551950
34.47000, 0.6082660
34.50000, 0.3382450
34.53000, 8.8519998E-02
34.56000, 0.8731740
34.59000, 0.7199120
34.62000, 0.9057990
34.65000, 1.629807
34.68000, 2.029546
34.71000, 2.364615
34.74000, 2.079932
34.77000, 2.577986
34.80000, 2.621881
34.83000, 2.233720
34.86000, 4.161602
34.89000, 6.326722
34.92000, 4.449688
34.95000, 2.862398
34.98000, 4.068656
35.01000, 6.047157
35.04000, 5.150465
35.07000, 3.766011
35.10000, 2.603727
35.13000, 3.119577
35.16000, 5.159766
35.19000, 5.862983
35.22000, 8.138621
35.25000, 10.12659
35.28000, 10.95147
35.31000, 9.414574
35.34000, 9.227798
35.37000, 10.45862
35.40000, 10.83537
35.43000, 8.724216
35.46000, 6.968770
35.49000, 7.897222
35.52000, 8.082285
35.55000, 5.956945
35.58000, 4.145375
35.61000, 4.414887
35.64000, 4.943717
35.67000, 3.046739
35.70000, 1.645153
35.73000, 1.354357
35.76000, 2.661154
35.79000, 2.986450
35.82000, 1.933936
35.85000, 0.8930180
35.88000, 0.8886880
35.91000, 0.3251570
35.94000, 0.1367170
35.97000, 0.1822190
36.00000, 0.3299040
36.03000, 0.1403090
36.06000, 0.6583620
36.09000, 0.4234350
36.12000, 0.3336040
36.15000, 0.2957770
36.18000, 0.2289510
36.21000, 0.2458420
36.24000, 0.3589020
36.27000, 0.9606240
36.30000, 2.303998
36.33000, 2.115001
36.36000, 1.923499
36.39000, 3.004209
36.42000, 3.347837
36.45000, 2.291679
36.48000, 2.652925
36.51000, 3.790169
36.54000, 5.163430
36.57000, 5.647407
36.60000, 5.262541
36.63000, 5.317023
36.66000, 7.502824
36.69000, 9.791006
36.72000, 8.871953
36.75000, 9.425931
36.78000, 13.95570
36.81000, 19.22674
36.84000, 23.54763
36.87000, 28.39004
36.90000, 35.41730
36.93000, 38.19187
36.96000, 40.02742
36.99000, 47.84363
37.02000, 51.41550
37.05000, 50.59980
37.08000, 49.81254
37.11000, 47.76414
37.14000, 43.50338
37.17000, 39.58960
37.20000, 36.27913
37.23000, 33.93736
37.26000, 32.47509
37.29000, 28.97070
37.32000, 24.59420
37.35000, 20.60949
37.38000, 14.95590
37.41000, 11.27471
37.44000, 10.23451
37.47000, 10.48480
37.50000, 11.07452
37.53000, 10.60599
37.56000, 10.16395
37.59000, 11.00425
37.62000, 10.63263
37.65000, 10.71657
37.68000, 12.68377
37.71000, 12.23731
37.74000, 13.31487
37.77000, 16.22106
37.80000, 17.26763
37.83000, 19.67991
37.86000, 21.55578
37.89000, 21.91423
37.92000, 21.68037
37.95000, 22.21127
37.98000, 23.56001
38.01000, 23.93720
38.04000, 21.40542
38.07000, 20.90971
38.10000, 21.99773
38.13000, 22.08480
38.16000, 21.11441
38.19000, 19.69699
38.22000, 16.72182
38.25000, 15.42259
38.28000, 15.01145
38.31000, 13.36578
38.34000, 11.51508
38.37000, 10.63967
38.40000, 9.161431
38.43000, 8.067575
38.46000, 7.689481
38.49000, 5.626369
38.52000, 3.339333
38.55000, 2.460270
38.58000, 1.160077
38.61000, 0.1114570
38.64000, 0.1248030
38.67000, 0.5697160
38.70000, 0.8585000
38.73000, 1.184754
38.76000, 2.191279
38.79000, 3.030475
38.82000, 3.137937
38.85000, 1.584369
38.88000, 1.873863
38.91000, 2.132831
38.94000, 2.030865
38.97000, 2.969967
39.00000, 3.506133
39.03000, 3.156273
39.06000, 1.177284
39.09000, 0.2596280
39.12000, 0.2588730
39.15000, 0.5432560
39.18000, 0.3222320
39.21000, 1.015197
39.24000, 2.892019
39.27000, 4.177208
39.30000, 5.015674
39.33000, 6.826705
39.36000, 8.088909
39.39000, 10.56138
39.42000, 9.009623
39.45000, 7.558732
39.48000, 9.037302
39.51000, 11.37315
39.54000, 11.32446
39.57000, 11.02253
39.60000, 9.319767
39.63000, 9.612430
39.66000, 8.865296
39.69000, 7.198825
39.72000, 5.862632
39.75000, 4.642034
39.78000, 3.379771
39.81000, 1.537143
39.84000, 1.944020
39.87000, 2.395916
39.90000, 2.213479
39.93000, 1.311823
39.96000, 0.4687310
39.99000, 2.1593001E-02
40.02000, 0.2984900
40.05000, 0.3163780
40.08000, 0.3442750
40.11000, 2.114598
40.14000, 1.336648
40.17000, 0.1407410
40.20000, 0.5549150
40.23000, 8.0952004E-02
40.26000, 2.275208
40.29000, 1.938403
40.32000, 0.6407360
40.35000, 1.295508
40.38000, 1.151411
40.41000, 0.4700550
40.44000, 1.344836
40.47000, 2.183035
40.50000, 2.828075
40.53000, 4.145230
40.56000, 5.270099
40.59000, 5.486690
40.62000, 3.897585
40.65000, 0.8985930
40.68000, 0.5565940
40.71000, 0.1898710
40.74000, 1.582989
40.77000, 3.122646
40.80000, 3.265092
40.83000, 3.849883
40.86000, 3.659482
40.89000, 4.135876
40.92000, 4.044880
40.95000, 4.028082
40.98000, 1.889792
41.01000, 0.3480850
41.04000, 1.289503
41.07000, 1.626178
41.10000, 2.540676
41.13000, 0.8729120
41.16000, 0.1744520
41.19000, 0.8343230
41.22000, 1.271792
41.25000, 0.9697650
41.28000, 0.6335370
41.31000, 8.6213998E-02
41.34000, 6.4369000E-02
41.37000, 0.4986080
41.40000, 0.6915720
41.43000, 0.3545880
41.46000, 4.6507001E-02
41.49000, 5.602970
41.52000, 8.960461
41.55000, 2.683599
41.58000, 1.932847
41.61000, 1.049125
41.64000, 0.2928770
41.67000, 9.5899999E-02
41.70000, 0.7389780
41.73000, 0.3098460
41.76000, 0.2076120
41.79000, 0.3090550
41.82000, 3.310704
41.85000, 6.358263
41.88000, 7.168426
41.91000, 7.015697
41.94000, 6.297359
41.97000, 4.846637
42.00000, 4.528016
42.03000, 4.711004
42.06000, 4.626193
42.09000, 4.027189
42.12000, 4.787285
42.15000, 4.882095
42.18000, 3.750700
42.21000, 2.150380
42.24000, 2.542870
42.27000, 2.759732
42.30000, 3.980900
42.33000, 5.143068
42.36000, 5.166845
42.39000, 5.505135
42.42000, 6.210721
42.45000, 4.570118
42.48000, 2.428114
42.51000, 2.904521
42.54000, 2.821750
42.57000, 4.421303
42.60000, 5.362472
42.63000, 4.111182
42.66000, 4.851105
42.69000, 5.779445
42.72000, 4.519388
42.75000, 2.472468
42.78000, 1.430478
42.81000, 1.887069
42.84000, 2.684479
42.87000, 4.523379
42.90000, 5.789823
42.93000, 4.301874
42.96000, 4.013944
42.99000, 4.159432
43.02000, 5.704128
43.05000, 6.727351
43.08000, 7.987493
43.11000, 7.808840
43.14000, 6.775317
43.17000, 6.267671
43.20000, 6.200664
43.23000, 5.015106
43.26000, 3.135975
43.29000, 1.726484
43.32000, 3.376637
43.35000, 3.652172
43.38000, 2.557509
43.41000, 1.524735
43.44000, 0.8219830
43.47000, 2.195149
43.50000, 2.894876
43.53000, 1.412122
43.56000, 1.541874
43.59000, 1.679719
43.62000, 1.264109
43.65000, 0.3369190
43.68000, 0.9876040
43.71000, 0.9899990
43.74000, 0.4601740
43.77000, 7.9469003E-02
43.80000, 8.7967001E-02
43.83000, 1.701119
43.86000, 1.517419
43.89000, 0.8042370
43.92000, 3.128064
43.95000, 2.989104
43.98000, 1.678463
44.01000, 2.787335
44.04000, 3.696826
44.07000, 4.557843
44.10000, 4.360781
44.13000, 2.340438
44.16000, 3.185326
44.19000, 4.571741
44.22000, 5.947776
44.25000, 7.206245
44.28000, 9.718865
44.31000, 12.29839
44.34000, 12.66995
44.37000, 12.35840
44.40000, 12.72003
44.43000, 15.15979
44.46000, 13.76488
44.49000, 12.00758
44.52000, 10.10913
44.55000, 9.297108
44.58000, 10.72312
44.61000, 14.77958
44.64000, 18.99436
44.67000, 21.57825
44.70000, 22.69951
44.73000, 23.95906
44.76000, 23.12709
44.79000, 19.00935
44.82000, 16.75628
44.85000, 14.51438
44.88000, 12.71414
44.91000, 13.70240
44.94000, 14.99696
44.97000, 18.13746
45.00000, 21.71671
45.03000, 18.51840
45.06000, 16.75790
45.09000, 16.02245
45.12000, 15.29328
45.15000, 13.00853
45.18000, 10.63618
45.21000, 9.670305
45.24000, 8.790938
45.27000, 5.707274
45.30000, 3.973831
45.33000, 5.217298
45.36000, 5.866207
45.39000, 5.952491
45.42000, 3.791034
45.45000, 4.532053
45.48000, 4.109900
45.51000, 3.640050
45.54000, 4.789582
45.57000, 2.955052
45.60000, 4.078917
45.63000, 4.021830
45.66000, 4.505242
45.69000, 3.818283
45.72000, 3.492800
45.75000, 4.338077
45.78000, 3.924270
45.81000, 2.767942
45.84000, 3.082959
45.87000, 4.767242
45.90000, 6.990892
45.93000, 4.611511
45.96000, 2.888202
45.99000, 2.457662
46.02000, 2.824795
46.05000, 4.139404
46.08000, 4.379578
46.11000, 3.067060
46.14000, 3.225895
46.17000, 4.503122
46.20000, 4.871277
46.23000, 4.139881
46.26000, 2.923671
46.29000, 1.476932
46.32000, 0.3943040
46.35000, 0.5427930
46.38000, 0.7664090
46.41000, 0.4086150
46.44000, 0.1489180
46.47000, 0.8762730
46.50000, 1.564193
46.53000, 3.049082
46.56000, 2.751405
46.59000, 3.605187
46.62000, 6.176866
46.65000, 5.954716
46.68000, 4.852664
46.71000, 1.736752
46.74000, 0.4907000
46.77000, 8.1602000E-02
46.80000, 0.1904260
46.83000, 0.4538710
46.86000, 0.1410380
46.89000, 0.4370710
46.92000, 7.0659998E-03
46.95000, 2.268380
46.98000, 1.722765
47.01000, 1.362117
47.04000, 0.8895370
47.07000, 1.225811
47.10000, 1.895103
47.13000, 1.447125
47.16000, 2.580925
47.19000, 2.456025
47.22000, 2.163989
47.25000, 1.126786
47.28000, 0.2766800
47.31000, 5.3854000E-02
47.34000, 0.3134840
47.37000, 0.5054240
47.40000, 0.3640830
47.43000, 0.2003420
47.46000, 2.412134
47.49000, 2.896240
47.52000, 4.919860
47.55000, 5.445332
47.58000, 4.942811
47.61000, 3.513026
47.64000, 2.813013
47.67000, 3.852685
47.70000, 3.813715
47.73000, 3.362653
47.76000, 6.251899
47.79000, 5.593759
47.82000, 5.558823
47.85000, 6.033807
47.88000, 4.585462
47.91000, 0.6905660
47.94000, 0.3730720
47.97000, 0.1021270
48.00000, 1.898785
48.03000, 3.143013
48.06000, 4.442568
48.09000, 1.811440
48.12000, 1.267936
48.15000, 1.285866
48.18000, 0.1008150
48.21000, 0.4570200
48.24000, 0.2819860
48.27000, 0.2868750
48.30000, 0.5683130
48.33000, 1.141945
48.36000, 1.252767
48.39000, 0.6506730
48.42000, 2.245941
48.45000, 1.400306
48.48000, 0.2727020
48.51000, 0.2477690
48.54000, 1.176218
48.57000, 1.802974
48.60000, 2.036798
48.63000, 1.361307
48.66000, 1.522709
48.69000, 1.110885
48.72000, 7.4694999E-02
48.75000, 0.2636680
48.78000, 1.811986
48.81000, 3.329258
48.84000, 2.788629
48.87000, 2.244745
48.90000, 1.475205
48.93000, 1.927638
48.96000, 3.072016
48.99000, 3.420228
49.02000, 2.846587
49.05000, 3.907284
49.08000, 3.817825
49.11000, 1.455971
49.14000, 1.406260
49.17000, 1.391297
49.20000, 2.064379
49.23000, 3.567906
49.26000, 3.412230
49.29000, 1.501936
49.32000, 0.7074570
49.35000, 0.3774980
49.38000, 0.2972300
49.41000, 2.903183
49.44000, 4.786173
49.47000, 3.436606
49.50000, 3.258463
49.53000, 1.461257
49.56000, 2.616583
49.59000, 2.745944
49.62000, 2.045750
49.65000, 0.6830790
49.68000, 0.4229090
49.71000, 1.560390
49.74000, 0.1286390
49.77000, 0.3157400
49.80000, 0.5706260
49.83000, 0.1256410
49.86000, 0.5856240
49.89000, 0.5558440
49.92000, 0.2684920
49.95000, 1.318892
49.98000, 3.122772
50.01000, 2.203077
50.04000, 0.8343380
50.07000, 2.662715
50.10000, 1.874919
50.13000, 0.6608520
50.16000, 0.5513200
50.19000, 1.961509
50.22000, 1.820932
50.25000, 0.3652900
50.28000, 0.9585720
50.31000, 1.638187
50.34000, 2.364946
50.37000, 3.071431
50.40000, 1.327284
50.43000, 0.4632320
50.46000, 3.197830
50.49000, 5.037615
50.52000, 4.404498
50.55000, 3.695568
50.58000, 3.243685
50.61000, 0.6148690
50.64000, 0.6596440
50.67000, 0.1204690
50.70000, 2.301911
50.73000, 2.405644
50.76000, 1.664466
50.79000, 2.636996
50.82000, 2.850590
50.85000, 2.694021
50.88000, 4.690622
50.91000, 6.420094
50.94000, 8.900257
50.97000, 10.42592
51.00000, 11.40530
51.03000, 9.363941
51.06000, 6.237148
51.09000, 5.095314
51.12000, 7.169837
51.15000, 7.409611
51.18000, 9.168573
51.21000, 10.39511
51.24000, 11.31132
51.27000, 14.40529
51.30000, 14.26472
51.33000, 13.97952
51.36000, 13.46369
51.39000, 10.96563
51.42000, 8.189245
51.45000, 5.727129
51.48000, 3.771159
51.51000, 5.268452
51.54000, 7.485019
51.57000, 11.52813
51.60000, 13.70782
51.63000, 12.97876
51.66000, 11.46083
51.69000, 11.09948
51.72000, 7.760950
51.75000, 5.355257
51.78000, 5.103126
51.81000, 6.405762
51.84000, 6.920882
51.87000, 6.309911
51.90000, 6.454277
51.93000, 6.196050
51.96000, 4.445843
51.99000, 2.676394
52.02000, 1.029631
52.05000, 2.250222
52.08000, 4.246916
52.11000, 1.192954
52.14000, 0.9096170
52.17000, 1.732181
52.20000, 3.968445
52.23000, 5.704692
52.26000, 5.064539
52.29000, 5.518037
52.32000, 5.156621
52.35000, 5.027799
52.38000, 5.197793
52.41000, 10.62119
52.44000, 19.90776
52.47000, 16.05754
52.50000, 3.223639
52.53000, 1.032037
52.56000, 0.1939330
52.59000, 1.720127
52.62000, 4.214916
52.65000, 7.062124
52.68000, 8.295234
52.71000, 6.739316
52.74000, 4.382931
52.77000, 3.343398
52.80000, 3.139300
52.83000, 3.479257
52.86000, 3.485955
52.89000, 3.816744
52.92000, 5.306750
52.95000, 3.912107
52.98000, 3.488657
53.01000, 5.189617
53.04000, 5.935891
53.07000, 4.989095
53.10000, 5.606798
53.13000, 7.332703
53.16000, 9.087832
53.19000, 8.210119
53.22000, 7.000338
53.25000, 7.590061
53.28000, 8.236366
53.31000, 6.656508
53.34000, 5.400105
53.37000, 3.512054
53.40000, 0.6888480
53.43000, 0.7946130
53.46000, 3.047708
53.49000, 2.611129
53.52000, 0.3961400
53.55000, 0.1039470
53.58000, 0.1509130
53.61000, 2.174940
53.64000, 3.726618
53.67000, 2.495380
53.70000, 1.941000
53.73000, 4.306649
53.76000, 5.448077
53.79000, 3.479925
53.82000, 3.548802
53.85000, 7.701076
53.88000, 8.528847
53.91000, 5.750017
53.94000, 2.319760
53.97000, 3.147283
54.00000, 3.195154
54.03000, 1.354806
54.06000, 0.6464360
54.09000, 1.523609
54.12000, 3.315769
54.15000, 5.057475
54.18000, 4.469222
54.21000, 4.836267
54.24000, 4.183754
54.27000, 4.067075
54.30000, 1.511919
54.33000, 1.841793
54.36000, 3.214184
54.39000, 4.285971
54.42000, 2.678050
54.45000, 1.540208
54.48000, 2.940842
54.51000, 3.358406
54.54000, 4.705614
54.57000, 4.047308
54.60000, 3.226982
54.63000, 1.608799
54.66000, 1.456606
54.69000, 0.3587130
54.72000, 0.3511430
54.75000, 0.3942780
54.78000, 0.1722330
54.81000, 0.7803040
54.84000, 0.5136610
54.87000, 3.113761
54.90000, 5.359767
54.93000, 6.626166
54.96000, 6.362902
54.99000, 2.594215
55.02000, 0.1957470
55.05000, 0.9322030
55.08000, 2.828140
55.11000, 4.166430
55.14000, 3.380732
55.17000, 4.173583
55.20000, 4.801967
55.23000, 5.496441
55.26000, 8.837866
55.29000, 9.194601
55.32000, 7.490671
55.35000, 5.558244
55.38000, 4.994028
55.41000, 3.441617
55.44000, 4.112674
55.47000, 2.317500
55.50000, 1.092796
55.53000, 0.8200440
55.56000, 1.858172
55.59000, 2.768078
55.62000, 3.300040
55.65000, 3.750257
55.68000, 4.064821
55.71000, 5.216470
55.74000, 3.880514
55.77000, 3.560418
55.80000, 2.935909
55.83000, 4.6213999E-02
55.86000, 2.529691
55.89000, 4.383031
55.92000, 1.622417
55.95000, 0.0000000E+00
##END=



