##NAMES=Tungstite
##RRUFFID=R050452
##IDEAL CHEMISTRY=WO_3_&#183;H_2_O
##LOCALITY=Sinaloa (near shared border with Chihuahua and Durango), Mexico
##OWNER=RRUFF
##SOURCE=University of Arizona Mineral Museum
##DESCRIPTION=Yellow massive
##DIFFRACTION SAMPLE DESCRIPTION=Powder, using Mo radiation
##STATUS=The identification of this mineral has been confirmed only by chemical analysis
##URL=rruff.info/R050452
##MEASURED CHEMISTRY=(W_0.95_Fe^3+^_0.05_)_Σ=1_(O_2.85_(OH)_0.15_)_Σ=3_·H_2_O; H_2_O estimated by difference; (OH) by charge balance
1.710000, 0.0000000E+00
1.740000, 0.2221670
1.770000, 3.350768
1.800000, 3.895080
1.830000, 4.374538
1.860000, 0.1179320
1.890000, 0.4645120
1.920000, 2.3302000E-02
1.950000, 6.591690
1.980000, 11.78400
2.010000, 10.55098
2.040000, 13.12493
2.070000, 24.80651
2.100000, 36.83853
2.130000, 44.55079
2.160000, 47.06619
2.190000, 37.95138
2.220000, 28.55513
2.250000, 31.51919
2.280000, 33.93966
2.310000, 27.61395
2.340000, 19.62419
2.370000, 15.96795
2.400000, 19.83541
2.430000, 18.47049
2.460000, 26.40541
2.490000, 42.88588
2.520000, 46.03010
2.550000, 43.46110
2.580000, 46.73818
2.610000, 47.88561
2.640000, 42.61853
2.670000, 25.21543
2.700000, 8.954342
2.730000, 1.666968
2.760000, 1.6089000E-02
2.790000, 2.711068
2.820000, 6.442936
2.850000, 9.436991
2.880000, 21.45955
2.910000, 20.78909
2.940000, 35.39096
2.970000, 45.39058
3.000000, 27.58185
3.030000, 2.185893
3.060000, 0.3722000
3.090000, 0.7350570
3.120000, 3.660103
3.150000, 6.149892
3.180000, 15.60287
3.210000, 18.86906
3.240000, 17.68560
3.270000, 19.22527
3.300000, 12.24984
3.330000, 12.99506
3.360000, 15.60986
3.390000, 15.29728
3.420000, 21.99469
3.450000, 26.00011
3.480000, 28.98383
3.510000, 36.11541
3.540000, 34.29433
3.570000, 25.43818
3.600000, 25.08743
3.630000, 33.92841
3.660000, 38.75450
3.690000, 47.19139
3.720000, 57.67369
3.750000, 74.57774
3.780000, 100.3780
3.810000, 132.0628
3.840000, 158.5958
3.870000, 176.5680
3.900000, 190.3027
3.930000, 208.8749
3.960000, 214.2630
3.990000, 213.2586
4.020000, 213.2962
4.050000, 216.8415
4.080000, 221.1508
4.110000, 234.4455
4.140000, 235.2639
4.170000, 248.4561
4.200000, 258.4698
4.230000, 267.8847
4.260000, 271.3190
4.290000, 262.8828
4.320000, 253.9544
4.350000, 255.1839
4.380000, 263.9808
4.410000, 259.1881
4.440000, 257.6809
4.470000, 255.8685
4.500000, 256.8715
4.530000, 258.4513
4.560000, 263.8333
4.590000, 267.2119
4.620000, 275.8255
4.650000, 286.8118
4.680000, 292.6672
4.710000, 290.0476
4.740000, 287.2645
4.770000, 285.5792
4.800000, 291.5471
4.830000, 300.8482
4.860000, 291.8098
4.890000, 288.7177
4.920000, 289.9707
4.950000, 279.7600
4.980000, 279.2035
5.010000, 287.9156
5.040000, 287.8515
5.070000, 287.4455
5.100000, 290.5723
5.130000, 294.7515
5.160000, 297.5203
5.190000, 295.0715
5.220000, 298.0928
5.250000, 307.0222
5.280000, 314.5999
5.310000, 311.8897
5.340000, 314.0717
5.370000, 303.5071
5.400000, 311.3333
5.430000, 307.3801
5.460000, 308.8275
5.490000, 309.0464
5.520000, 301.1580
5.550000, 295.5845
5.580000, 283.6786
5.610000, 272.1188
5.640000, 272.6272
5.670000, 275.9000
5.700000, 280.9382
5.730000, 276.3646
5.760000, 271.2126
5.790000, 265.8885
5.820000, 258.3959
5.850000, 251.6003
5.880000, 258.9966
5.910000, 254.5696
5.940000, 273.5338
5.970000, 260.1886
6.000000, 260.7438
6.030000, 267.9097
6.060000, 260.1564
6.090000, 259.3413
6.120000, 244.4872
6.150000, 250.0450
6.180000, 246.6195
6.210000, 243.9725
6.240000, 235.8005
6.270000, 234.5634
6.300000, 240.9521
6.330000, 242.1172
6.360000, 240.3502
6.390000, 242.3378
6.420000, 236.7005
6.450000, 226.2971
6.480000, 211.6134
6.510000, 209.3013
6.540000, 214.2999
6.570000, 213.8848
6.600000, 201.0773
6.630000, 184.7077
6.660000, 166.7993
6.690000, 164.5351
6.720000, 169.7217
6.750000, 165.8484
6.780000, 159.9662
6.810000, 158.0642
6.840000, 147.4743
6.870000, 137.3964
6.900000, 131.8844
6.930000, 138.3565
6.960000, 149.7014
6.990000, 153.2687
7.020000, 145.8806
7.050000, 136.7484
7.080000, 126.8764
7.110000, 120.0070
7.140000, 105.0696
7.170000, 106.9558
7.200000, 101.1687
7.230000, 98.69035
7.260000, 102.9046
7.290000, 95.02253
7.320000, 86.80611
7.350000, 78.17218
7.380000, 79.28577
7.410000, 76.57595
7.440000, 71.73867
7.470000, 67.65510
7.500000, 64.19824
7.530000, 59.68715
7.560000, 57.52602
7.590000, 53.95378
7.620000, 53.93833
7.650000, 49.91304
7.680000, 49.60798
7.710000, 51.72613
7.740000, 43.83765
7.770000, 43.77210
7.800000, 29.37218
7.830000, 21.39669
7.860000, 11.82181
7.890000, 6.383477
7.920000, 1.981802
7.950000, 1.484768
7.980000, 6.527983
8.010000, 12.58751
8.040000, 7.229911
8.070000, 7.351287
8.100000, 9.041603
8.130000, 4.529150
8.160000, 5.033641
8.190000, 1.2651000E-02
8.220000, 6.937059
8.250000, 1.363272
8.280000, 5.408445
8.310000, 2.832612
8.340000, 7.645153
8.370000, 3.616311
8.400000, 7.137817
8.430000, 8.413692
8.460000, 8.549322
8.490000, 8.319229
8.520000, 6.572451
8.550000, 5.099057
8.580000, 1.783812
8.610000, 1.509254
8.640000, 5.252351
8.670000, 9.974871
8.700000, 3.924692
8.730000, 6.274099
8.760000, 10.94751
8.790000, 1.901186
8.820000, 5.509451
8.850000, 3.850460
8.880000, 1.653186
8.910000, 1.658513
8.940000, 2.045620
8.970000, 1.518959
9.000000, 1.568750
9.030000, 2.997916
9.060000, 0.1312670
9.090000, 1.973811
9.120000, 0.8449720
9.150000, 2.326181
9.180000, 4.263409
9.210000, 3.680599
9.240000, 2.777122
9.270000, 1.129243
9.300000, 10.01935
9.330000, 12.26020
9.360000, 12.43658
9.390000, 15.95318
9.420000, 5.168271
9.450000, 3.105716
9.480000, 5.636517
9.510000, 5.706855
9.540000, 7.862563
9.570000, 4.244817
9.600000, 4.699522
9.630000, 12.44530
9.660000, 21.15049
9.690000, 25.36913
9.720000, 31.48532
9.750000, 31.94002
9.780000, 32.86438
9.810000, 38.73428
9.840000, 43.05379
9.870000, 46.75685
9.900000, 55.29161
9.930000, 61.90112
9.960000, 66.52729
9.990000, 76.13425
10.02000, 87.67596
10.05000, 100.9903
10.08000, 118.2638
10.11000, 136.1222
10.14000, 159.0333
10.17000, 183.1895
10.20000, 210.7535
10.23000, 247.1557
10.26000, 306.0756
10.29000, 368.1039
10.32000, 448.4252
10.35000, 537.4781
10.38000, 640.1438
10.41000, 743.8612
10.44000, 851.5008
10.47000, 949.0327
10.50000, 1037.197
10.53000, 1144.243
10.56000, 1225.063
10.59000, 1272.553
10.62000, 1295.257
10.65000, 1305.613
10.68000, 1294.521
10.71000, 1256.163
10.74000, 1209.496
10.77000, 1156.902
10.80000, 1092.601
10.83000, 1021.442
10.86000, 939.6560
10.89000, 871.1124
10.92000, 793.6118
10.95000, 725.3138
10.98000, 666.0787
11.01000, 617.4463
11.04000, 574.5667
11.07000, 536.0300
11.10000, 508.6563
11.13000, 481.3357
11.16000, 459.3277
11.19000, 448.5029
11.22000, 435.3510
11.25000, 421.0422
11.28000, 409.5768
11.31000, 398.5145
11.34000, 389.5162
11.37000, 383.9568
11.40000, 375.5907
11.43000, 378.2636
11.46000, 374.8404
11.49000, 376.8313
11.52000, 374.2470
11.55000, 370.1671
11.58000, 371.1120
11.61000, 372.7139
11.64000, 373.8327
11.67000, 376.2299
11.70000, 380.8590
11.73000, 385.2944
11.76000, 391.6425
11.79000, 397.7491
11.82000, 402.4563
11.85000, 409.6554
11.88000, 406.6160
11.91000, 416.3155
11.94000, 420.2929
11.97000, 417.9725
12.00000, 416.6381
12.03000, 424.5833
12.06000, 426.1843
12.09000, 422.9187
12.12000, 420.4490
12.15000, 426.5893
12.18000, 428.6231
12.21000, 422.4290
12.24000, 417.4236
12.27000, 416.6359
12.30000, 421.0716
12.33000, 429.0963
12.36000, 431.7077
12.39000, 431.9612
12.42000, 438.4125
12.45000, 440.1742
12.48000, 435.7513
12.51000, 435.3022
12.54000, 429.2190
12.57000, 423.1834
12.60000, 415.3861
12.63000, 407.2853
12.66000, 398.7873
12.69000, 396.0057
12.72000, 398.4100
12.75000, 394.1602
12.78000, 386.7159
12.81000, 382.1885
12.84000, 375.7650
12.87000, 367.5301
12.90000, 366.5216
12.93000, 364.4401
12.96000, 359.6706
12.99000, 352.8471
13.02000, 340.0637
13.05000, 328.9243
13.08000, 322.6791
13.11000, 322.5824
13.14000, 318.5343
13.17000, 308.9081
13.20000, 301.3328
13.23000, 295.2524
13.26000, 289.0273
13.29000, 286.1573
13.32000, 277.4323
13.35000, 270.4122
13.38000, 263.0966
13.41000, 253.8552
13.44000, 243.3180
13.47000, 235.0048
13.50000, 226.9555
13.53000, 215.7703
13.56000, 195.8289
13.59000, 186.0914
13.62000, 183.5777
13.65000, 178.2879
13.68000, 173.1014
13.71000, 172.6288
13.74000, 166.1498
13.77000, 151.3142
13.80000, 136.1962
13.83000, 130.6166
13.86000, 129.7583
13.89000, 127.3454
13.92000, 124.9946
13.95000, 121.2280
13.98000, 115.7065
14.01000, 105.5580
14.04000, 98.09859
14.07000, 92.25108
14.10000, 89.01745
14.13000, 81.58663
14.16000, 73.92759
14.19000, 80.39514
14.22000, 85.74747
14.25000, 84.69008
14.28000, 77.95425
14.31000, 74.32800
14.34000, 74.90802
14.37000, 77.82221
14.40000, 79.27365
14.43000, 79.03536
14.46000, 75.02304
14.49000, 68.51974
14.52000, 59.41149
14.55000, 59.77489
14.58000, 51.58122
14.61000, 58.86126
14.64000, 64.53806
14.67000, 65.05734
14.70000, 66.17124
14.73000, 66.60835
14.76000, 68.87890
14.79000, 68.35789
14.82000, 72.29500
14.85000, 72.03744
14.88000, 73.43933
14.91000, 73.53790
14.94000, 75.80953
14.97000, 77.60587
15.00000, 79.36562
15.03000, 78.76150
15.06000, 77.12679
15.09000, 75.60362
15.12000, 73.63929
15.15000, 70.98786
15.18000, 73.93417
15.21000, 76.72781
15.24000, 81.46149
15.27000, 79.30856
15.30000, 79.14729
15.33000, 84.75361
15.36000, 86.60706
15.39000, 93.68013
15.42000, 100.9658
15.45000, 103.3763
15.48000, 105.5576
15.51000, 109.7301
15.54000, 115.8805
15.57000, 118.5313
15.60000, 122.6629
15.63000, 131.7750
15.66000, 145.0027
15.69000, 150.0485
15.72000, 152.9509
15.75000, 153.6364
15.78000, 151.6532
15.81000, 151.2258
15.84000, 156.4213
15.87000, 170.1064
15.90000, 178.3329
15.93000, 184.3990
15.96000, 188.4477
15.99000, 192.3465
16.02000, 193.9469
16.05000, 192.1813
16.08000, 192.2164
16.11000, 183.3408
16.14000, 176.5301
16.17000, 177.2910
16.20000, 176.7532
16.23000, 173.1208
16.26000, 179.6752
16.29000, 187.8495
16.32000, 186.1582
16.35000, 186.2625
16.38000, 188.0125
16.41000, 187.8164
16.44000, 190.6839
16.47000, 198.0627
16.50000, 203.8098
16.53000, 204.4515
16.56000, 202.1390
16.59000, 199.9674
16.62000, 198.4832
16.65000, 197.6657
16.68000, 197.2436
16.71000, 197.5704
16.74000, 197.1072
16.77000, 190.0448
16.80000, 182.6984
16.83000, 180.1652
16.86000, 179.4942
16.89000, 182.5223
16.92000, 184.1096
16.95000, 182.6728
16.98000, 182.5618
17.01000, 179.2595
17.04000, 172.8356
17.07000, 167.5882
17.10000, 162.0457
17.13000, 156.1638
17.16000, 149.7238
17.19000, 145.8358
17.22000, 138.1728
17.25000, 131.9345
17.28000, 127.1320
17.31000, 119.8400
17.34000, 117.1147
17.37000, 112.3057
17.40000, 108.0241
17.43000, 104.1468
17.46000, 97.78151
17.49000, 92.72028
17.52000, 85.61815
17.55000, 80.35087
17.58000, 75.43140
17.61000, 72.50647
17.64000, 67.92010
17.67000, 65.99129
17.70000, 61.40982
17.73000, 55.10164
17.76000, 48.80664
17.79000, 43.91577
17.82000, 45.01498
17.85000, 43.83205
17.88000, 35.53991
17.91000, 28.98646
17.94000, 29.81767
17.97000, 31.81244
18.00000, 32.77764
18.03000, 50.41927
18.06000, 39.08364
18.09000, 55.37605
18.12000, 27.79919
18.15000, 32.00126
18.18000, 33.40119
18.21000, 32.45786
18.24000, 29.25941
18.27000, 24.16054
18.30000, 19.49710
18.33000, 11.54722
18.36000, 6.080658
18.39000, 2.069368
18.42000, 0.7247010
18.45000, 1.364111
18.48000, 2.116179
18.51000, 3.018350
18.54000, 1.071205
18.57000, 2.290040
18.60000, 3.619349
18.63000, 1.176174
18.66000, 0.8372570
18.69000, 4.766693
18.72000, 8.300556
18.75000, 11.72345
18.78000, 11.09252
18.81000, 14.41021
18.84000, 10.91037
18.87000, 13.88671
18.90000, 13.32523
18.93000, 14.33951
18.96000, 10.95262
18.99000, 6.609119
19.02000, 4.464269
19.05000, 2.842798
19.08000, 2.809174
19.11000, 2.527050
19.14000, 3.240348
19.17000, 3.564616
19.20000, 1.333325
19.23000, 1.360040
19.26000, 4.294163
19.29000, 4.143099
19.32000, 4.289795
19.35000, 0.2654330
19.38000, 3.127217
19.41000, 6.489668
19.44000, 6.876403
19.47000, 3.859766
19.50000, 1.039838
19.53000, 6.212682
19.56000, 9.908195
19.59000, 8.433058
19.62000, 8.066228
19.65000, 6.382608
19.68000, 4.872481
19.71000, 3.460011
19.74000, 2.602393
19.77000, 0.1290450
19.80000, 3.508083
19.83000, 4.269261
19.86000, 7.126271
19.89000, 7.477312
19.92000, 5.080715
19.95000, 3.443792
19.98000, 3.905066
20.01000, 7.042937
20.04000, 0.3304480
20.07000, 2.861446
20.10000, 6.985938
20.13000, 9.046972
20.16000, 9.163287
20.19000, 5.245362
20.22000, 5.302573
20.25000, 6.880618
20.28000, 9.838880
20.31000, 12.85582
20.34000, 15.89846
20.37000, 13.20259
20.40000, 12.30530
20.43000, 12.03665
20.46000, 12.89780
20.49000, 15.50303
20.52000, 21.69053
20.55000, 27.22384
20.58000, 33.74826
20.61000, 42.05388
20.64000, 50.47591
20.67000, 56.25818
20.70000, 56.82795
20.73000, 59.49503
20.76000, 61.98611
20.79000, 68.62981
20.82000, 78.95965
20.85000, 87.97650
20.88000, 100.0125
20.91000, 110.9380
20.94000, 124.6403
20.97000, 142.3356
21.00000, 155.3914
21.03000, 171.8433
21.06000, 191.0940
21.09000, 217.1987
21.12000, 242.2826
21.15000, 260.6444
21.18000, 279.3544
21.21000, 295.7043
21.24000, 311.1942
21.27000, 320.1588
21.30000, 328.9464
21.33000, 331.3665
21.36000, 328.6875
21.39000, 327.8147
21.42000, 327.6469
21.45000, 322.9732
21.48000, 315.9177
21.51000, 306.7843
21.54000, 297.4141
21.57000, 287.8489
21.60000, 269.4298
21.63000, 252.6001
21.66000, 238.2753
21.69000, 226.6829
21.72000, 222.7906
21.75000, 223.0507
21.78000, 225.1378
21.81000, 227.3324
21.84000, 227.6851
21.87000, 233.2861
21.90000, 236.6915
21.93000, 235.2124
21.96000, 228.6585
21.99000, 227.2763
22.02000, 237.3368
22.05000, 245.8459
22.08000, 245.9827
22.11000, 252.5215
22.14000, 259.7510
22.17000, 260.3947
22.20000, 266.2570
22.23000, 277.2201
22.26000, 285.2463
22.29000, 289.0515
22.32000, 291.7961
22.35000, 294.6360
22.38000, 292.7322
22.41000, 293.0361
22.44000, 301.6642
22.47000, 309.8917
22.50000, 311.6143
22.53000, 310.3104
22.56000, 316.7172
22.59000, 317.0828
22.62000, 319.8016
22.65000, 321.1522
22.68000, 322.2309
22.71000, 318.4603
22.74000, 311.0715
22.77000, 307.6250
22.80000, 307.6909
22.83000, 305.1682
22.86000, 303.2618
22.89000, 304.5050
22.92000, 300.1382
22.95000, 295.6161
22.98000, 294.1391
23.01000, 287.9478
23.04000, 280.5212
23.07000, 274.8754
23.10000, 277.2266
23.13000, 279.8250
23.16000, 278.3608
23.19000, 278.9900
23.22000, 272.4915
23.25000, 269.2139
23.28000, 274.6893
23.31000, 275.4053
23.34000, 267.6939
23.37000, 261.3954
23.40000, 258.6955
23.43000, 256.6906
23.46000, 255.9720
23.49000, 253.3132
23.52000, 251.2323
23.55000, 249.0754
23.58000, 246.2949
23.61000, 244.7906
23.64000, 243.5666
23.67000, 243.6332
23.70000, 237.1922
23.73000, 233.5667
23.76000, 233.7184
23.79000, 230.1591
23.82000, 235.9412
23.85000, 242.7182
23.88000, 245.9717
23.91000, 246.8722
23.94000, 250.2932
23.97000, 253.3093
24.00000, 255.2993
24.03000, 259.5727
24.06000, 259.7179
24.09000, 262.1490
24.12000, 263.1613
24.15000, 271.5754
24.18000, 282.3521
24.21000, 298.8865
24.24000, 296.0276
24.27000, 298.9965
24.30000, 296.7021
24.33000, 296.4301
24.36000, 305.6809
24.39000, 317.4907
24.42000, 327.4749
24.45000, 333.0031
24.48000, 340.2349
24.51000, 348.9992
24.54000, 351.2751
24.57000, 348.5345
24.60000, 341.1844
24.63000, 345.9284
24.66000, 354.9577
24.69000, 364.7361
24.72000, 376.5902
24.75000, 381.9336
24.78000, 384.2865
24.81000, 383.7196
24.84000, 382.4128
24.87000, 380.8435
24.90000, 375.8158
24.93000, 370.3381
24.96000, 369.3300
24.99000, 377.0416
25.02000, 383.0632
25.05000, 381.5547
25.08000, 375.0160
25.11000, 372.3876
25.14000, 372.5204
25.17000, 373.0933
25.20000, 368.9662
25.23000, 358.5603
25.26000, 353.2643
25.29000, 349.1539
25.32000, 346.3885
25.35000, 341.9823
25.38000, 341.0113
25.41000, 332.5638
25.44000, 324.2919
25.47000, 320.4025
25.50000, 311.0789
25.53000, 297.7335
25.56000, 287.6619
25.59000, 284.6267
25.62000, 281.4575
25.65000, 276.2248
25.68000, 267.7675
25.71000, 260.7226
25.74000, 250.9628
25.77000, 239.3049
25.80000, 231.1573
25.83000, 230.5378
25.86000, 223.5460
25.89000, 209.2824
25.92000, 200.3984
25.95000, 189.7396
25.98000, 176.3291
26.01000, 163.8186
26.04000, 158.6238
26.07000, 153.9638
26.10000, 150.8917
26.13000, 150.4627
26.16000, 148.7009
26.19000, 149.4650
26.22000, 143.6422
26.25000, 133.7413
26.28000, 132.6780
26.31000, 128.9212
26.34000, 124.1187
26.37000, 122.7470
26.40000, 118.4407
26.43000, 110.3347
26.46000, 106.8463
26.49000, 97.46204
26.52000, 88.16122
26.55000, 89.66414
26.58000, 86.43755
26.61000, 74.56831
26.64000, 65.53249
26.67000, 61.02509
26.70000, 59.19008
26.73000, 54.73225
26.76000, 56.13066
26.79000, 51.09376
26.82000, 49.11843
26.85000, 42.81784
26.88000, 37.84499
26.91000, 32.21180
26.94000, 25.25698
26.97000, 21.07764
27.00000, 16.71862
27.03000, 19.00203
27.06000, 17.70102
27.09000, 13.34537
27.12000, 11.61726
27.15000, 9.833751
27.18000, 8.344781
27.21000, 10.28045
27.24000, 6.369893
27.27000, 6.7987002E-02
27.30000, 1.751667
27.33000, 0.2588800
27.36000, 2.678795
27.39000, 5.993018
27.42000, 5.790725
27.45000, 1.999827
27.48000, 1.067150
27.51000, 0.3203540
27.54000, 2.801304
27.57000, 3.760496
27.60000, 4.837494
27.63000, 5.179125
27.66000, 5.088626
27.69000, 4.687428
27.72000, 4.469844
27.75000, 4.025071
27.78000, 4.409167
27.81000, 4.923559
27.84000, 3.797594
27.87000, 3.970639
27.90000, 0.6039290
27.93000, 3.520417
27.96000, 2.329112
27.99000, 0.8498020
28.02000, 2.555267
28.05000, 3.650496
28.08000, 0.8388740
28.11000, 1.305744
28.14000, 3.670771
28.17000, 1.051127
28.20000, 3.073882
28.23000, 2.381603
28.26000, 5.657828
28.29000, 9.561561
28.32000, 6.014851
28.35000, 0.8668230
28.38000, 2.920734
28.41000, 3.000501
28.44000, 3.143728
28.47000, 2.680232
28.50000, 3.573899
28.53000, 6.931766
28.56000, 1.893237
28.59000, 1.348272
28.62000, 2.507005
28.65000, 3.849321
28.68000, 11.93777
28.71000, 20.54336
28.74000, 18.18560
28.77000, 17.32524
28.80000, 15.80948
28.83000, 11.15472
28.86000, 12.21878
28.89000, 17.89979
28.92000, 16.77716
28.95000, 10.10000
28.98000, 4.491955
29.01000, 6.534684
29.04000, 8.454679
29.07000, 9.078370
29.10000, 7.129499
29.13000, 0.3027570
29.16000, 1.689377
29.19000, 1.566924
29.22000, 4.395797
29.25000, 9.031127
29.28000, 8.717958
29.31000, 0.8303770
29.34000, 1.394007
29.37000, 1.302305
29.40000, 1.433117
29.43000, 2.798923
29.46000, 3.630114
29.49000, 2.477303
29.52000, 1.190365
29.55000, 3.552968
29.58000, 1.355328
29.61000, 0.1775040
29.64000, 3.312266
29.67000, 5.066529
29.70000, 5.255981
29.73000, 1.860887
29.76000, 1.608797
29.79000, 2.622204
29.82000, 4.019197
29.85000, 8.888482
29.88000, 11.59400
29.91000, 6.235275
29.94000, 0.3410210
29.97000, 1.119027
30.00000, 2.488059
30.03000, 5.138977
30.06000, 5.212824
30.09000, 5.784860
30.12000, 3.964086
30.15000, 0.7652070
30.18000, 4.128513
30.21000, 1.891420
30.24000, 4.910956
30.27000, 1.903769
30.30000, 1.795686
30.33000, 2.456069
30.36000, 9.214708
30.39000, 15.33199
30.42000, 16.20375
30.45000, 14.94586
30.48000, 13.39349
30.51000, 14.29955
30.54000, 17.06901
30.57000, 14.75276
30.60000, 15.33899
30.63000, 9.359617
30.66000, 7.696427
30.69000, 14.35330
30.72000, 19.48735
30.75000, 19.05135
30.78000, 13.16440
30.81000, 10.06050
30.84000, 12.57646
30.87000, 13.99678
30.90000, 15.21050
30.93000, 16.92438
30.96000, 23.42422
30.99000, 29.53700
31.02000, 31.09556
31.05000, 31.53105
31.08000, 29.24845
31.11000, 30.19108
31.14000, 31.73840
31.17000, 35.14315
31.20000, 34.99302
31.23000, 32.18623
31.26000, 29.09415
31.29000, 29.09209
31.32000, 30.20590
31.35000, 28.79465
31.38000, 27.90846
31.41000, 32.23027
31.44000, 33.88906
31.47000, 28.60123
31.50000, 24.34269
31.53000, 17.07828
31.56000, 21.37167
31.59000, 22.53185
31.62000, 22.18579
31.65000, 22.87746
31.68000, 19.28550
31.71000, 14.66413
31.74000, 13.96247
31.77000, 18.83245
31.80000, 21.39273
31.83000, 21.50697
31.86000, 19.63311
31.89000, 14.43832
31.92000, 4.993421
31.95000, 1.028636
31.98000, 1.053094
32.01000, 2.173327
32.04000, 6.971834
32.07000, 8.222170
32.10000, 4.837346
32.13000, 3.510404
32.16000, 3.240246
32.19000, 2.604019
32.22000, 0.3266350
32.25000, 1.305990
32.28000, 2.040977
32.31000, 0.1185190
32.34000, 5.5675000E-02
32.37000, 0.9629480
32.40000, 1.924861
32.43000, 2.611792
32.46000, 0.3613050
32.49000, 0.3069410
32.52000, 0.4149900
32.55000, 0.4180250
32.58000, 0.1037250
32.61000, 2.006756
32.64000, 4.402658
32.67000, 6.024529
32.70000, 8.448775
32.73000, 10.84070
32.76000, 12.97879
32.79000, 11.06611
32.82000, 12.80888
32.85000, 16.55913
32.88000, 13.14504
32.91000, 12.11790
32.94000, 14.61374
32.97000, 14.54912
33.00000, 15.58532
33.03000, 19.53399
33.06000, 20.90963
33.09000, 26.10944
33.12000, 27.67944
33.15000, 27.59391
33.18000, 25.17657
33.21000, 21.46186
33.24000, 21.24093
33.27000, 22.50030
33.30000, 26.45201
33.33000, 27.38016
33.36000, 26.56987
33.39000, 29.14106
33.42000, 25.02986
33.45000, 18.61631
33.48000, 20.71618
33.51000, 25.95129
33.54000, 24.06753
33.57000, 22.56860
33.60000, 21.51482
33.63000, 18.59607
33.66000, 20.88974
33.69000, 22.96233
33.72000, 26.13760
33.75000, 26.81270
33.78000, 29.65296
33.81000, 33.13153
33.84000, 33.87296
33.87000, 33.75868
33.90000, 37.38020
33.93000, 39.69638
33.96000, 38.74426
33.99000, 34.97042
34.02000, 36.86977
34.05000, 40.03812
34.08000, 43.38136
34.11000, 48.68595
34.14000, 59.16476
34.17000, 61.69978
34.20000, 64.92270
34.23000, 65.36200
34.26000, 61.87440
34.29000, 58.87859
34.32000, 60.11238
34.35000, 61.61487
34.38000, 69.17451
34.41000, 75.94648
34.44000, 77.60576
34.47000, 78.57729
34.50000, 77.61974
34.53000, 74.33700
34.56000, 70.93144
34.59000, 69.32187
34.62000, 72.11229
34.65000, 73.15677
34.68000, 71.72213
34.71000, 70.50964
34.74000, 71.53947
34.77000, 68.29264
34.80000, 67.44043
34.83000, 75.60239
34.86000, 76.13469
34.89000, 76.42114
34.92000, 77.95751
34.95000, 79.98702
34.98000, 83.64763
35.01000, 86.31940
35.04000, 84.16544
35.07000, 81.39481
35.10000, 82.06835
35.13000, 76.78151
35.16000, 79.24529
35.19000, 78.00838
35.22000, 73.95969
35.25000, 73.50516
35.28000, 73.08963
35.31000, 72.35493
35.34000, 73.72260
35.37000, 74.75369
35.40000, 70.59146
35.43000, 66.30502
35.46000, 65.40131
35.49000, 62.32281
35.52000, 60.27237
35.55000, 58.34354
35.58000, 54.46327
35.61000, 51.53843
35.64000, 51.15921
35.67000, 50.16875
35.70000, 47.35811
35.73000, 47.17268
35.76000, 42.59596
35.79000, 44.27948
35.82000, 43.44169
35.85000, 39.82207
35.88000, 42.34964
35.91000, 45.53984
35.94000, 44.29300
35.97000, 40.03881
36.00000, 36.03786
36.03000, 31.04430
36.06000, 26.87919
36.09000, 24.12017
36.12000, 21.02670
36.15000, 20.31247
36.18000, 19.10991
36.21000, 18.62582
36.24000, 19.45463
36.27000, 21.07209
36.30000, 23.23926
36.33000, 22.33057
36.36000, 28.22922
36.39000, 31.88769
36.42000, 30.09872
36.45000, 27.32348
36.48000, 24.69578
36.51000, 17.50181
36.54000, 8.638369
36.57000, 2.867342
36.60000, 1.804082
36.63000, 1.362083
36.66000, 0.9778130
36.69000, 0.2394110
36.72000, 1.2111000E-02
36.75000, 2.417240
36.78000, 2.332237
36.81000, 3.653368
36.84000, 6.962035
36.87000, 6.037294
36.90000, 8.315115
36.93000, 13.74044
36.96000, 12.15405
36.99000, 6.800882
37.02000, 1.249406
37.05000, 0.1655390
37.08000, 0.6430000
37.11000, 0.9796160
37.14000, 2.687567
37.17000, 5.763370
37.20000, 3.838711
37.23000, 0.7235180
37.26000, 0.3717750
37.29000, 0.6797800
37.32000, 2.199648
37.35000, 0.2842500
37.38000, 0.8344570
37.41000, 0.8649430
37.44000, 1.228527
37.47000, 1.950645
37.50000, 6.488967
37.53000, 9.402030
37.56000, 6.030620
37.59000, 6.217640
37.62000, 0.8090410
37.65000, 2.282214
37.68000, 0.7057170
37.71000, 0.5791710
37.74000, 0.1564480
37.77000, 8.6014003E-02
37.80000, 2.072290
37.83000, 3.179976
37.86000, 7.822474
37.89000, 7.211036
37.92000, 8.134854
37.95000, 8.603889
37.98000, 5.564939
38.01000, 2.991247
38.04000, 5.721381
38.07000, 8.436495
38.10000, 8.708697
38.13000, 9.569013
38.16000, 9.419716
38.19000, 9.641850
38.22000, 11.79413
38.25000, 14.42270
38.28000, 16.59855
38.31000, 20.84596
38.34000, 19.59106
38.37000, 19.12696
38.40000, 15.71263
38.43000, 11.06297
38.46000, 9.514316
38.49000, 8.822831
38.52000, 7.585437
38.55000, 7.748786
38.58000, 10.46107
38.61000, 9.382552
38.64000, 9.604118
38.67000, 12.62663
38.70000, 19.88650
38.73000, 19.75058
38.76000, 20.28802
38.79000, 24.46657
38.82000, 22.74170
38.85000, 15.72376
38.88000, 15.43977
38.91000, 19.53291
38.94000, 25.73722
38.97000, 28.56532
39.00000, 21.80539
39.03000, 14.85536
39.06000, 14.78311
39.09000, 19.36977
39.12000, 20.19725
39.15000, 19.60034
39.18000, 20.62373
39.21000, 20.75898
39.24000, 19.41949
39.27000, 21.91374
39.30000, 21.87253
39.33000, 22.32122
39.36000, 26.82373
39.39000, 25.39011
39.42000, 30.38332
39.45000, 34.87794
39.48000, 30.06927
39.51000, 26.99952
39.54000, 28.06770
39.57000, 22.65561
39.60000, 21.10316
39.63000, 25.77884
39.66000, 28.14316
39.69000, 28.39916
39.72000, 30.32681
39.75000, 32.65349
39.78000, 28.95111
39.81000, 27.86865
39.84000, 28.55197
39.87000, 30.87028
39.90000, 32.60138
39.93000, 32.31236
39.96000, 26.31527
39.99000, 21.58503
40.02000, 23.61071
40.05000, 27.60015
40.08000, 32.21062
40.11000, 33.75885
40.14000, 35.30550
40.17000, 35.27903
40.20000, 34.80162
40.23000, 34.00699
40.26000, 33.28223
40.29000, 32.24762
40.32000, 31.70180
40.35000, 31.50428
40.38000, 31.25866
40.41000, 30.32097
40.44000, 31.35326
40.47000, 29.73349
40.50000, 23.42075
40.53000, 20.55486
40.56000, 21.32999
40.59000, 17.82603
40.62000, 21.17860
40.65000, 24.13902
40.68000, 21.09275
40.71000, 19.35988
40.74000, 23.43964
40.77000, 21.53146
40.80000, 21.81644
40.83000, 15.82760
40.86000, 20.09447
40.89000, 17.37966
40.92000, 15.55273
40.95000, 18.98885
40.98000, 15.67832
41.01000, 12.27694
41.04000, 10.37926
41.07000, 9.198812
41.10000, 9.262068
41.13000, 10.35525
41.16000, 15.24558
41.19000, 19.63596
41.22000, 17.37151
41.25000, 8.694406
41.28000, 4.055279
41.31000, 5.536142
41.34000, 2.688173
41.37000, 2.355465
41.40000, 0.4384880
41.43000, 1.753676
41.46000, 4.861047
41.49000, 2.204383
41.52000, 2.188292
41.55000, 0.2252210
41.58000, 1.8237000E-02
41.61000, 0.3813670
41.64000, 1.302461
41.67000, 5.468303
41.70000, 3.693185
41.73000, 2.212585
41.76000, 5.037307
41.79000, 4.908195
41.82000, 5.097412
41.85000, 1.577918
41.88000, 1.372331
41.91000, 1.018717
41.94000, 0.8554950
41.97000, 2.186224
42.00000, 6.097899
42.03000, 9.481434
42.06000, 6.639239
42.09000, 3.533362
42.12000, 3.802904
42.15000, 2.642751
42.18000, 1.414966
42.21000, 0.8666840
42.24000, 3.043550
42.27000, 1.990234
42.30000, 1.768227
42.33000, 1.720169
42.36000, 2.446452
42.39000, 0.5833320
42.42000, 0.3686130
42.45000, 3.060433
42.48000, 3.181083
42.51000, 1.968477
42.54000, 1.553194
42.57000, 3.112380
42.60000, 4.949749
42.63000, 7.865296
42.66000, 8.015223
42.69000, 11.47864
42.72000, 12.58169
42.75000, 11.14325
42.78000, 4.880599
42.81000, 1.4430000E-03
42.84000, 0.4091290
42.87000, 2.416964
42.90000, 7.639738
42.93000, 10.49137
42.96000, 9.198861
42.99000, 7.923034
43.02000, 5.255021
43.05000, 7.958664
43.08000, 10.70604
43.11000, 14.36322
43.14000, 13.53521
43.17000, 14.90034
43.20000, 12.25248
43.23000, 14.48784
43.26000, 14.47701
43.29000, 14.61392
43.32000, 15.68073
43.35000, 19.56330
43.38000, 19.88671
43.41000, 19.61800
43.44000, 18.36631
43.47000, 13.42047
43.50000, 16.15864
43.53000, 16.51126
43.56000, 19.39539
43.59000, 20.36815
43.62000, 20.10436
43.65000, 21.68318
43.68000, 22.15350
43.71000, 13.77851
43.74000, 11.83097
43.77000, 14.50213
43.80000, 16.29357
43.83000, 17.59597
43.86000, 19.90115
43.89000, 21.01389
43.92000, 23.37023
43.95000, 21.95673
43.98000, 22.71796
44.01000, 19.60669
44.04000, 19.52123
44.07000, 26.07553
44.10000, 21.03658
44.13000, 18.83228
44.16000, 19.49670
44.19000, 21.27947
44.22000, 29.52918
44.25000, 18.79774
44.28000, 11.43603
44.31000, 12.50557
44.34000, 7.860898
44.37000, 8.257107
44.40000, 11.08510
44.43000, 8.418633
44.46000, 8.055197
44.49000, 8.846829
44.52000, 6.732543
44.55000, 10.75359
44.58000, 9.247774
44.61000, 5.696192
44.64000, 8.832220
44.67000, 12.16537
44.70000, 9.276576
44.73000, 11.04894
44.76000, 9.628426
44.79000, 8.792138
44.82000, 8.720166
44.85000, 8.567594
44.88000, 9.072032
44.91000, 9.236491
44.94000, 8.503738
44.97000, 9.937520
45.00000, 10.50251
45.03000, 10.24096
45.06000, 14.29208
45.09000, 19.91772
45.12000, 27.69880
45.15000, 27.45080
45.18000, 23.46507
45.21000, 18.88637
45.24000, 23.02733
45.27000, 26.89499
45.30000, 27.14928
45.33000, 24.98282
45.36000, 17.53077
45.39000, 13.31038
45.42000, 14.06363
45.45000, 16.84428
45.48000, 16.47616
45.51000, 19.03039
45.54000, 20.41465
45.57000, 18.91718
45.60000, 21.36787
45.63000, 23.66043
45.66000, 23.25795
45.69000, 25.05978
45.72000, 26.28506
45.75000, 24.92512
45.78000, 29.08894
45.81000, 26.08496
45.84000, 27.23585
45.87000, 25.82001
45.90000, 29.17699
45.93000, 31.76078
45.96000, 30.73078
45.99000, 28.64638
46.02000, 32.93063
46.05000, 32.19913
46.08000, 28.16185
46.11000, 32.23095
46.14000, 32.78449
46.17000, 25.59571
46.20000, 22.09075
46.23000, 17.87109
46.26000, 19.69765
46.29000, 21.87815
46.32000, 16.52455
46.35000, 16.57413
46.38000, 18.55472
46.41000, 19.92926
46.44000, 22.47775
46.47000, 25.17320
46.50000, 23.53368
46.53000, 26.24472
46.56000, 30.48333
46.59000, 33.45333
46.62000, 31.41682
46.65000, 31.44287
46.68000, 33.29427
46.71000, 34.99023
46.74000, 33.04685
46.77000, 33.55536
46.80000, 32.21100
46.83000, 33.22733
46.86000, 34.43089
46.89000, 29.90252
46.92000, 31.32680
46.95000, 29.31752
46.98000, 24.82648
47.01000, 27.10457
47.04000, 29.69918
47.07000, 31.89514
47.10000, 30.47030
47.13000, 32.24199
47.16000, 34.53799
47.19000, 37.16439
47.22000, 38.82226
47.25000, 34.43863
47.28000, 27.11846
47.31000, 33.11258
47.34000, 33.66121
47.37000, 28.25830
47.40000, 32.64574
47.43000, 37.27074
47.46000, 41.24220
47.49000, 44.38509
47.52000, 43.54346
47.55000, 37.24939
47.58000, 33.91785
47.61000, 32.15266
47.64000, 29.83987
47.67000, 35.53660
47.70000, 42.55661
47.73000, 45.52600
47.76000, 46.82375
47.79000, 44.50292
47.82000, 44.82655
47.85000, 42.05728
47.88000, 38.67436
47.91000, 39.22242
47.94000, 40.19173
47.97000, 35.48640
48.00000, 31.06271
48.03000, 28.35214
48.06000, 20.77198
48.09000, 19.30251
48.12000, 18.96994
48.15000, 19.91799
48.18000, 28.24353
48.21000, 31.96632
48.24000, 29.80564
48.27000, 30.22204
48.30000, 28.77372
48.33000, 21.78820
48.36000, 23.99298
48.39000, 24.14290
48.42000, 19.88591
48.45000, 21.00276
48.48000, 23.49242
48.51000, 20.79087
48.54000, 13.76115
48.57000, 11.30524
48.60000, 13.44236
48.63000, 13.77471
48.66000, 12.78052
48.69000, 12.29777
48.72000, 6.813359
48.75000, 8.147191
48.78000, 10.69052
48.81000, 14.45389
48.84000, 16.07136
48.87000, 16.25759
48.90000, 24.27636
48.93000, 19.75830
48.96000, 18.64282
48.99000, 21.84101
49.02000, 13.56410
49.05000, 4.054440
49.08000, 8.110131
49.11000, 13.28246
49.14000, 18.36668
49.17000, 24.62609
49.20000, 25.49619
49.23000, 22.84516
49.26000, 18.38545
49.29000, 12.12093
49.32000, 7.322427
49.35000, 1.317633
49.38000, 0.7018870
49.41000, 2.576063
49.44000, 1.351825
49.47000, 1.182817
49.50000, 6.776949
49.53000, 12.34123
49.56000, 14.59867
49.59000, 16.55664
49.62000, 18.33962
49.65000, 13.36312
49.68000, 6.921610
49.71000, 6.150935
49.74000, 5.922777
49.77000, 0.2720700
49.80000, 0.1505370
49.83000, 3.531018
49.86000, 4.478891
49.89000, 5.834986
49.92000, 5.588895
49.95000, 5.397329
49.98000, 4.784061
50.01000, 2.317196
50.04000, 1.367833
50.07000, 0.4793210
50.10000, 1.0135000E-02
50.13000, 7.490364
50.16000, 18.84829
50.19000, 22.08215
50.22000, 22.33359
50.25000, 20.10875
50.28000, 16.40204
50.31000, 14.11673
50.34000, 11.18402
50.37000, 7.205969
50.40000, 4.429461
50.43000, 4.951874
50.46000, 3.127252
50.49000, 3.076224
50.52000, 2.225562
50.55000, 1.625879
50.58000, 2.0691000E-02
50.61000, 2.843858
50.64000, 0.0000000E+00
##END=



