##NAMES=Uranophane
##RRUFFID=R070038
##IDEAL CHEMISTRY=Ca(U^6+^O_2_)_2_(SiO_3_OH)_2_&#183;5H_2_O
##LOCALITY=Kyzulsai Mo-U deposit, south Kazakhstan
##OWNER=RRUFF
##SOURCE=Michael Scott
##DESCRIPTION=Lemon-yellow granular coating
##DIFFRACTION SAMPLE DESCRIPTION=Powder, using Mo radiation
##STATUS=The identification of this mineral has been confirmed by X-ray diffraction.
##URL=rruff.info/R070038
5.010000, 337.0937
5.030000, 445.9594
5.050000, 555.0214
5.070000, 664.0041
5.090000, 786.2351
5.110000, 918.0566
5.130000, 1033.224
5.150000, 1155.431
5.170000, 1243.273
5.190000, 1300.782
5.210000, 1329.670
5.230000, 1330.393
5.250000, 1296.187
5.270000, 1257.077
5.290000, 1185.315
5.310000, 1069.566
5.330000, 942.0518
5.350000, 807.8291
5.370000, 656.7726
5.390000, 514.3432
5.410000, 395.0087
5.430000, 295.0998
5.450000, 226.1067
5.470000, 173.0223
5.490000, 129.4915
5.510000, 99.27531
5.530000, 77.62479
5.550000, 54.52372
5.570000, 26.01348
5.590000, 6.543134
5.610000, 5.694449
5.630000, 1.058450
5.650000, 1.676007
5.670000, 1.451474
5.690000, 2.118142
5.710000, 2.939813
5.730000, 6.154598
5.750000, 5.274371
5.770000, 5.061189
5.790000, 2.020616
5.810000, 1.474236
5.830000, 5.313685
5.850000, 2.823230
5.870000, 3.934903
5.890000, 4.792657
5.910000, 0.5068650
5.930000, 7.779020
5.950000, 19.32742
5.970000, 29.90123
5.990000, 52.41309
6.010000, 72.94222
6.030000, 95.24501
6.050000, 126.2578
6.070000, 149.8917
6.090000, 165.5569
6.110000, 189.8146
6.130000, 210.4742
6.150000, 232.9174
6.170000, 248.9490
6.190000, 254.9954
6.210000, 260.1501
6.230000, 256.5812
6.250000, 251.8295
6.270000, 232.8570
6.290000, 212.3569
6.310000, 184.8477
6.330000, 159.0242
6.350000, 133.4257
6.370000, 112.0526
6.390000, 95.88155
6.410000, 76.39950
6.430000, 65.31759
6.450000, 51.44975
6.470000, 38.18073
6.490000, 22.89473
6.510000, 9.492774
6.530000, 3.121971
6.550000, 2.644862
6.570000, 6.165770
6.590000, 8.956966
6.610000, 12.72257
6.630000, 15.01358
6.650000, 12.36985
6.670000, 13.18878
6.690000, 10.04864
6.710000, 2.107894
6.730000, 1.044175
6.750000, 2.730361
6.770000, 2.047348
6.790000, 2.496917
6.810000, 5.190930
6.830000, 0.2248780
6.850000, 2.519353
6.870000, 2.850882
6.890000, 1.657072
6.910000, 4.455301
6.930000, 4.392274
6.950000, 0.6310730
6.970000, 0.2887840
6.990000, 3.270179
7.010000, 2.882542
7.030000, 0.7241730
7.050000, 1.312039
7.070000, 1.463153
7.090000, 4.566156
7.110000, 1.512971
7.130000, 1.339881
7.150000, 0.2066790
7.170000, 3.160655
7.190000, 0.5829600
7.210000, 0.6652930
7.230000, 0.4012610
7.250000, 3.700125
7.270000, 0.6520780
7.290000, 1.163015
7.310000, 14.20329
7.330000, 28.58468
7.350000, 53.94817
7.370000, 86.37886
7.390000, 116.2722
7.410000, 138.8869
7.430000, 160.5475
7.450000, 188.7457
7.470000, 218.9954
7.490000, 252.8346
7.510000, 281.6866
7.530000, 295.8144
7.550000, 301.5515
7.570000, 299.9052
7.590000, 288.5598
7.610000, 276.4306
7.630000, 251.1109
7.650000, 220.4675
7.670000, 186.7406
7.690000, 164.5660
7.710000, 136.8440
7.730000, 103.4981
7.750000, 73.20255
7.770000, 51.59930
7.790000, 44.26053
7.810000, 35.40780
7.830000, 25.92514
7.850000, 14.20872
7.870000, 3.964795
7.890000, 1.596969
7.910000, 0.8110380
7.930000, 0.7804170
7.950000, 1.052511
7.970000, 0.1902620
7.990000, 0.8518570
8.010000, 4.653326
8.030000, 0.2550950
8.050000, 0.8070390
8.070000, 0.7711400
8.090000, 5.118163
8.110000, 6.219144
8.130000, 1.617034
8.150000, 1.533743
8.170000, 5.035779
8.190000, 16.86254
8.210000, 22.01602
8.230000, 31.34409
8.250000, 49.74635
8.270000, 66.47958
8.290000, 91.45856
8.310000, 132.5938
8.330000, 181.4521
8.350000, 254.9485
8.370000, 331.4730
8.390000, 405.3503
8.410000, 487.6381
8.430000, 549.9680
8.450000, 605.5189
8.470000, 636.5344
8.490000, 664.7087
8.510000, 682.2757
8.530000, 674.9301
8.550000, 661.7399
8.570000, 629.5825
8.590000, 572.7360
8.610000, 509.9857
8.630000, 435.1623
8.650000, 360.6127
8.670000, 288.9174
8.690000, 228.3752
8.710000, 183.8864
8.730000, 141.5460
8.750000, 107.8561
8.770000, 90.96455
8.790000, 77.74252
8.810000, 63.67031
8.830000, 57.57169
8.850000, 46.11808
8.870000, 41.34095
8.890000, 35.42768
8.910000, 35.34663
8.930000, 35.92658
8.950000, 36.55668
8.970000, 33.61900
8.990000, 32.44447
9.010000, 29.53118
9.030000, 31.09806
9.050000, 36.11519
9.070000, 38.64046
9.090000, 38.23290
9.110000, 36.51575
9.130000, 34.99456
9.150000, 32.24366
9.170000, 33.53845
9.190000, 37.59760
9.210000, 35.32439
9.230000, 30.86830
9.250000, 28.81314
9.270000, 35.02607
9.290000, 40.40678
9.310000, 46.87677
9.330000, 50.71978
9.350000, 55.93597
9.370000, 68.26204
9.390000, 77.47054
9.410000, 99.26394
9.430000, 113.1088
9.450000, 127.0138
9.470000, 138.6221
9.490000, 145.0052
9.510000, 152.0827
9.530000, 155.0136
9.550000, 158.1039
9.570000, 152.9072
9.590000, 145.3223
9.610000, 133.8108
9.630000, 123.9336
9.650000, 104.4143
9.670000, 86.35377
9.690000, 63.96542
9.710000, 47.44917
9.730000, 33.59592
9.750000, 22.38165
9.770000, 15.70076
9.790000, 5.893274
9.810000, 2.607964
9.830000, 3.244940
9.850000, 5.7257999E-02
9.870000, 2.605841
9.890000, 1.527658
9.910000, 2.562685
9.930000, 4.785237
9.950000, 10.31057
9.970000, 11.32273
9.990000, 17.77278
10.01000, 22.52529
10.03000, 27.57500
10.05000, 32.39346
10.07000, 47.32851
10.09000, 73.72498
10.11000, 102.3684
10.13000, 134.6077
10.15000, 176.2013
10.17000, 224.2662
10.19000, 298.2725
10.21000, 376.7473
10.23000, 452.0603
10.25000, 515.6605
10.27000, 586.4269
10.29000, 644.6508
10.31000, 693.7941
10.33000, 728.0793
10.35000, 730.4069
10.37000, 707.5762
10.39000, 669.2075
10.41000, 623.2343
10.43000, 568.9427
10.45000, 491.9960
10.47000, 415.8051
10.49000, 345.6610
10.51000, 264.5595
10.53000, 193.3826
10.55000, 131.2751
10.57000, 94.02007
10.59000, 68.11236
10.61000, 48.94575
10.63000, 30.96861
10.65000, 15.68198
10.67000, 8.706150
10.69000, 5.334289
10.71000, 3.189501
10.73000, 1.499927
10.75000, 3.731270
10.77000, 0.5722480
10.79000, 3.360253
10.81000, 1.074497
10.83000, 2.030209
10.85000, 3.520247
10.87000, 2.015811
10.89000, 3.506349
10.91000, 2.804150
10.93000, 3.440009
10.95000, 0.9955340
10.97000, 3.442992
10.99000, 3.298529
11.01000, 3.235637
11.03000, 5.940405
11.05000, 1.764078
11.07000, 2.291275
11.09000, 3.234826
11.11000, 3.833420
11.13000, 0.6874220
11.15000, 0.8041530
11.17000, 8.494956
11.19000, 26.73346
11.21000, 44.27180
11.23000, 57.21814
11.25000, 79.43450
11.27000, 100.4149
11.29000, 118.1973
11.31000, 132.6029
11.33000, 141.1847
11.35000, 146.0581
11.37000, 159.9466
11.39000, 183.2702
11.41000, 192.0599
11.43000, 210.7118
11.45000, 252.5630
11.47000, 301.1610
11.49000, 350.7963
11.51000, 418.5351
11.53000, 487.0970
11.55000, 561.4350
11.57000, 641.1287
11.59000, 721.0455
11.61000, 775.3059
11.63000, 789.0599
11.65000, 780.6191
11.67000, 760.6154
11.69000, 719.6697
11.71000, 652.2531
11.73000, 576.5854
11.75000, 508.2793
11.77000, 439.3428
11.79000, 377.4678
11.81000, 332.5033
11.83000, 295.2439
11.85000, 274.1479
11.87000, 261.1759
11.89000, 245.7315
11.91000, 234.0894
11.93000, 222.7170
11.95000, 215.9111
11.97000, 199.0167
11.99000, 178.5332
12.01000, 156.4032
12.03000, 131.9054
12.05000, 105.2545
12.07000, 79.79794
12.09000, 60.53762
12.11000, 44.12642
12.13000, 36.40759
12.15000, 21.55258
12.17000, 12.71590
12.19000, 7.265585
12.21000, 1.337003
12.23000, 4.830999
12.25000, 0.3128260
12.27000, 1.678417
12.29000, 4.107548
12.31000, 0.7658420
12.33000, 0.7909370
12.35000, 2.877767
12.37000, 4.325366
12.39000, 2.568974
12.41000, 4.526655
12.43000, 0.2705430
12.45000, 5.845691
12.47000, 14.16866
12.49000, 34.28688
12.51000, 56.91840
12.53000, 85.99447
12.55000, 128.0841
12.57000, 185.9114
12.59000, 255.5305
12.61000, 332.6384
12.63000, 413.6050
12.65000, 495.0928
12.67000, 586.6751
12.69000, 651.1946
12.71000, 708.0240
12.73000, 741.4338
12.75000, 753.1641
12.77000, 748.0335
12.79000, 719.8210
12.81000, 658.1547
12.83000, 596.3368
12.85000, 513.1781
12.87000, 426.7475
12.89000, 337.9008
12.91000, 260.6104
12.93000, 187.4081
12.95000, 127.4225
12.97000, 89.59395
12.99000, 57.72797
13.01000, 47.85082
13.03000, 44.38598
13.05000, 42.70203
13.07000, 40.13309
13.09000, 40.93385
13.11000, 47.23544
13.13000, 53.24629
13.15000, 63.52791
13.17000, 76.33164
13.19000, 76.25740
13.21000, 71.27571
13.23000, 59.15082
13.25000, 56.68650
13.27000, 48.25729
13.29000, 38.58371
13.31000, 34.29844
13.33000, 31.92542
13.35000, 24.94582
13.37000, 29.20993
13.39000, 27.67796
13.41000, 35.88030
13.43000, 45.86686
13.45000, 59.87685
13.47000, 80.50273
13.49000, 120.9928
13.51000, 166.8492
13.53000, 235.9097
13.55000, 292.9976
13.57000, 349.3023
13.59000, 395.1611
13.61000, 441.6059
13.63000, 494.9135
13.65000, 524.8740
13.67000, 541.8874
13.69000, 550.7734
13.71000, 539.6331
13.73000, 524.0551
13.75000, 502.6900
13.77000, 481.2776
13.79000, 460.6283
13.81000, 442.1714
13.83000, 436.0771
13.85000, 431.2760
13.87000, 437.3872
13.89000, 444.9111
13.91000, 464.5275
13.93000, 485.6766
13.95000, 494.9584
13.97000, 498.9824
13.99000, 505.2889
14.01000, 499.4279
14.03000, 487.5996
14.05000, 469.3634
14.07000, 440.9995
14.09000, 401.4079
14.11000, 370.1466
14.13000, 318.0226
14.15000, 275.7289
14.17000, 236.4129
14.19000, 200.4036
14.21000, 162.4323
14.23000, 131.7935
14.25000, 101.1200
14.27000, 77.25224
14.29000, 66.89664
14.31000, 65.51026
14.33000, 66.76045
14.35000, 59.55092
14.37000, 59.36080
14.39000, 53.77327
14.41000, 54.16106
14.43000, 49.94445
14.45000, 45.97728
14.47000, 47.12320
14.49000, 42.21489
14.51000, 32.50345
14.53000, 25.78617
14.55000, 21.17864
14.57000, 16.16856
14.59000, 11.45001
14.61000, 5.959535
14.63000, 1.457581
14.65000, 4.808109
14.67000, 0.4053370
14.69000, 5.010527
14.71000, 0.5365620
14.73000, 3.005992
14.75000, 0.4707790
14.77000, 0.9224290
14.79000, 0.1609690
14.81000, 0.3485590
14.83000, 1.289671
14.85000, 3.575180
14.87000, 3.731849
14.89000, 12.90829
14.91000, 23.12711
14.93000, 34.92123
14.95000, 48.86073
14.97000, 66.94013
14.99000, 85.22861
15.01000, 109.0095
15.03000, 130.0647
15.05000, 155.0054
15.07000, 185.0329
15.09000, 203.1953
15.11000, 218.1009
15.13000, 226.3630
15.15000, 232.3846
15.17000, 223.2671
15.19000, 210.9675
15.21000, 194.5991
15.23000, 176.9475
15.25000, 165.1186
15.27000, 142.1594
15.29000, 124.4375
15.31000, 114.2026
15.33000, 102.3562
15.35000, 91.04884
15.37000, 87.25685
15.39000, 89.80383
15.41000, 97.04340
15.43000, 113.2278
15.45000, 133.5051
15.47000, 142.3967
15.49000, 150.4341
15.51000, 156.6071
15.53000, 156.4865
15.55000, 166.2784
15.57000, 178.2692
15.59000, 173.8616
15.61000, 161.4143
15.63000, 152.4446
15.65000, 139.1480
15.67000, 115.0440
15.69000, 104.0836
15.71000, 84.84916
15.73000, 69.48913
15.75000, 57.89309
15.77000, 36.78645
15.79000, 31.73228
15.81000, 38.40966
15.83000, 36.97620
15.85000, 28.42875
15.87000, 25.14433
15.89000, 23.12513
15.91000, 28.60803
15.93000, 38.21365
15.95000, 44.46650
15.97000, 45.36710
15.99000, 47.23840
16.01000, 54.73747
16.03000, 61.73816
16.05000, 70.75652
16.07000, 82.71282
16.09000, 93.65697
16.11000, 109.7811
16.13000, 124.0188
16.15000, 139.2268
16.17000, 150.8825
16.19000, 155.6186
16.21000, 160.6091
16.23000, 152.7461
16.25000, 145.6083
16.27000, 135.9701
16.29000, 125.1240
16.31000, 113.6982
16.33000, 102.0846
16.35000, 89.08155
16.37000, 70.02555
16.39000, 58.41129
16.41000, 44.07495
16.43000, 30.50944
16.45000, 20.22553
16.47000, 7.412684
16.49000, 0.1159680
16.51000, 1.990689
16.53000, 1.729934
16.55000, 0.7477170
16.57000, 1.197737
16.59000, 1.303813
16.61000, 0.3447510
16.63000, 2.088111
16.65000, 1.335149
16.67000, 3.758119
16.69000, 5.199202
16.71000, 7.300802
16.73000, 1.336954
16.75000, 1.116495
16.77000, 0.8011170
16.79000, 3.456223
16.81000, 5.043322
16.83000, 4.691958
16.85000, 5.848999
16.87000, 4.616916
16.89000, 1.532727
16.91000, 4.048009
16.93000, 12.30847
16.95000, 15.84669
16.97000, 14.46362
16.99000, 8.051285
17.01000, 4.196515
17.03000, 3.132488
17.05000, 9.562963
17.07000, 10.97405
17.09000, 12.70713
17.11000, 14.40825
17.13000, 14.43331
17.15000, 18.17131
17.17000, 16.53280
17.19000, 12.05751
17.21000, 6.891478
17.23000, 7.173117
17.25000, 3.161844
17.27000, 3.280322
17.29000, 0.5949930
17.31000, 2.079521
17.33000, 2.085667
17.35000, 1.022702
17.37000, 0.9579710
17.39000, 0.8601730
17.41000, 0.5801740
17.43000, 2.299720
17.45000, 2.205327
17.47000, 0.4552880
17.49000, 0.9961610
17.51000, 1.507555
17.53000, 3.5590000E-02
17.55000, 0.7670460
17.57000, 0.1252220
17.59000, 0.4521110
17.61000, 0.7920780
17.63000, 0.2830710
17.65000, 1.208388
17.67000, 2.735136
17.69000, 4.3946002E-02
17.71000, 1.869722
17.73000, 2.595493
17.75000, 2.235196
17.77000, 1.328371
17.79000, 1.835509
17.81000, 6.376372
17.83000, 12.15846
17.85000, 14.28015
17.87000, 22.21969
17.89000, 28.58327
17.91000, 26.44182
17.93000, 32.13070
17.95000, 39.48999
17.97000, 50.55974
17.99000, 59.34385
18.01000, 55.25652
18.03000, 53.72046
18.05000, 58.71607
18.07000, 53.93871
18.09000, 49.11353
18.11000, 47.53546
18.13000, 46.07891
18.15000, 41.16426
18.17000, 36.35743
18.19000, 34.72333
18.21000, 33.99082
18.23000, 35.25471
18.25000, 37.32016
18.27000, 43.15435
18.29000, 48.10215
18.31000, 60.72832
18.33000, 68.73602
18.35000, 81.73856
18.37000, 102.3419
18.39000, 115.5402
18.41000, 138.3373
18.43000, 170.5493
18.45000, 193.8143
18.47000, 222.3252
18.49000, 250.5349
18.51000, 265.5766
18.53000, 282.5943
18.55000, 292.4120
18.57000, 294.6135
18.59000, 297.0349
18.61000, 285.7229
18.63000, 270.3075
18.65000, 256.1644
18.67000, 239.3902
18.69000, 221.8071
18.71000, 199.4190
18.73000, 172.2001
18.75000, 138.7344
18.77000, 121.1729
18.79000, 103.8250
18.81000, 87.44770
18.83000, 71.93366
18.85000, 69.39981
18.87000, 75.37315
18.89000, 77.84385
18.91000, 76.45373
18.93000, 75.70734
18.95000, 66.44016
18.97000, 59.94445
18.99000, 62.22185
19.01000, 61.64124
19.03000, 57.68659
19.05000, 59.07441
19.07000, 66.13625
19.09000, 65.35004
19.11000, 65.63041
19.13000, 65.01956
19.15000, 60.34318
19.17000, 61.38384
19.19000, 59.16389
19.21000, 63.13255
19.23000, 76.46159
19.25000, 86.06767
19.27000, 100.7230
19.29000, 126.0245
19.31000, 154.8238
19.33000, 175.9263
19.35000, 208.1293
19.37000, 235.7921
19.39000, 262.6281
19.41000, 283.5178
19.43000, 305.2125
19.45000, 314.4028
19.47000, 314.2901
19.49000, 302.2163
19.51000, 290.9051
19.53000, 271.4860
19.55000, 254.4831
19.57000, 236.0451
19.59000, 222.7123
19.61000, 205.4907
19.63000, 181.1165
19.65000, 148.2649
19.67000, 122.5765
19.69000, 107.4956
19.71000, 98.97621
19.73000, 90.95227
19.75000, 85.95077
19.77000, 88.45161
19.79000, 96.83198
19.81000, 95.39943
19.83000, 93.30224
19.85000, 101.3834
19.87000, 99.64647
19.89000, 80.99633
19.91000, 69.09879
19.93000, 61.08700
19.95000, 62.44276
19.97000, 58.62544
19.99000, 50.33395
20.01000, 45.18729
20.03000, 36.76781
20.05000, 28.18259
20.07000, 19.14585
20.09000, 13.57604
20.11000, 14.63838
20.13000, 5.190592
20.15000, 4.870816
20.17000, 0.5866630
20.19000, 4.334033
20.21000, 0.5143190
20.23000, 2.590494
20.25000, 0.8559000
20.27000, 7.9907000E-02
20.29000, 0.9025660
20.31000, 3.482972
20.33000, 2.334530
20.35000, 2.798311
20.37000, 0.8213890
20.39000, 4.275036
20.41000, 1.816199
20.43000, 2.247654
20.45000, 4.603836
20.47000, 5.971601
20.49000, 16.36672
20.51000, 25.36482
20.53000, 29.56737
20.55000, 33.50483
20.57000, 37.96059
20.59000, 38.04170
20.61000, 41.57328
20.63000, 51.24525
20.65000, 59.98572
20.67000, 69.96268
20.69000, 84.02817
20.71000, 101.7043
20.73000, 112.5907
20.75000, 124.0899
20.77000, 130.4948
20.79000, 131.9052
20.81000, 131.5033
20.83000, 135.9500
20.85000, 135.1054
20.87000, 130.0846
20.89000, 124.0475
20.91000, 117.6833
20.93000, 104.4037
20.95000, 92.54712
20.97000, 79.37322
20.99000, 67.87637
21.01000, 49.88523
21.03000, 36.62598
21.05000, 36.44473
21.07000, 22.38037
21.09000, 6.153047
21.11000, 6.797647
21.13000, 2.475333
21.15000, 0.4999250
21.17000, 0.6243960
21.19000, 3.349320
21.21000, 7.291836
21.23000, 14.25204
21.25000, 24.53337
21.27000, 48.71583
21.29000, 75.06898
21.31000, 101.9392
21.33000, 118.9223
21.35000, 146.1793
21.37000, 168.8706
21.39000, 187.4212
21.41000, 207.0137
21.43000, 215.7473
21.45000, 235.5982
21.47000, 229.7966
21.49000, 236.7171
21.51000, 246.0380
21.53000, 244.7772
21.55000, 257.4162
21.57000, 262.9471
21.59000, 260.2301
21.61000, 260.6103
21.63000, 256.3895
21.65000, 248.9699
21.67000, 245.8255
21.69000, 242.8369
21.71000, 239.9179
21.73000, 234.6087
21.75000, 226.1960
21.77000, 224.3150
21.79000, 219.2669
21.81000, 212.5336
21.83000, 214.7412
21.85000, 204.8195
21.87000, 186.0351
21.89000, 182.8276
21.91000, 176.4455
21.93000, 157.1541
21.95000, 133.4885
21.97000, 123.5023
21.99000, 109.5708
22.01000, 92.15120
22.03000, 77.79209
22.05000, 63.80958
22.07000, 43.47883
22.09000, 39.30071
22.11000, 29.11152
22.13000, 22.80995
22.15000, 22.74170
22.17000, 20.09997
22.19000, 16.76114
22.21000, 25.79568
22.23000, 30.77442
22.25000, 40.02112
22.27000, 43.27822
22.29000, 44.24275
22.31000, 51.54739
22.33000, 41.32383
22.35000, 37.94223
22.37000, 49.39539
22.39000, 48.83551
22.41000, 33.36762
22.43000, 37.32265
22.45000, 40.49295
22.47000, 45.51506
22.49000, 49.41449
22.51000, 42.05523
22.53000, 38.08250
22.55000, 30.16057
22.57000, 12.27492
22.59000, 0.6213410
22.61000, 2.283622
22.63000, 1.504595
22.65000, 2.921996
22.67000, 2.576268
22.69000, 0.9083350
22.71000, 2.567780
22.73000, 2.669879
22.75000, 2.117804
22.77000, 3.538203
22.79000, 3.986659
22.81000, 1.582261
22.83000, 4.782880
22.85000, 3.026241
22.87000, 4.152370
22.89000, 2.407555
22.91000, 1.948239
22.93000, 13.39587
22.95000, 25.95343
22.97000, 44.88677
22.99000, 61.77496
23.01000, 74.96091
23.03000, 80.89273
23.05000, 92.26125
23.07000, 89.76303
23.09000, 102.5942
23.11000, 103.0309
23.13000, 98.82069
23.15000, 98.91623
23.17000, 114.3364
23.19000, 130.2985
23.21000, 139.5022
23.23000, 159.4248
23.25000, 163.0482
23.27000, 165.5733
23.29000, 176.5901
23.31000, 188.1158
23.33000, 205.4701
23.35000, 215.5873
23.37000, 219.1382
23.39000, 216.7079
23.41000, 223.0402
23.43000, 226.4243
23.45000, 226.0612
23.47000, 228.2147
23.49000, 228.4980
23.51000, 223.3700
23.53000, 219.6697
23.55000, 208.4641
23.57000, 194.9710
23.59000, 174.1368
23.61000, 152.6272
23.63000, 132.3685
23.65000, 116.7608
23.67000, 99.33016
23.69000, 90.53946
23.71000, 82.86753
23.73000, 77.14921
23.75000, 79.41243
23.77000, 87.80537
23.79000, 92.91285
23.81000, 100.3639
23.83000, 103.6235
23.85000, 103.5808
23.87000, 104.0755
23.89000, 104.3947
23.91000, 107.6972
23.93000, 112.4564
23.95000, 101.9468
23.97000, 94.82295
23.99000, 92.88034
24.01000, 79.98579
24.03000, 74.24142
24.05000, 83.01925
24.07000, 93.03307
24.09000, 93.60767
24.11000, 90.82166
24.13000, 87.10566
24.15000, 82.84292
24.17000, 83.03749
24.19000, 80.32329
24.21000, 74.32121
24.23000, 71.58809
24.25000, 61.15000
24.27000, 60.44812
24.29000, 52.30249
24.31000, 53.08612
24.33000, 50.69160
24.35000, 49.54208
24.37000, 47.92358
24.39000, 50.99126
24.41000, 48.11591
24.43000, 52.54435
24.45000, 50.74086
24.47000, 62.89339
24.49000, 87.32702
24.51000, 91.68805
24.53000, 87.10402
24.55000, 83.04534
24.57000, 81.72216
24.59000, 84.23333
24.61000, 86.07433
24.63000, 96.64757
24.65000, 101.2668
24.67000, 98.88885
24.69000, 100.5501
24.71000, 96.90022
24.73000, 84.16991
24.75000, 67.82291
24.77000, 66.58536
24.79000, 68.11919
24.81000, 66.04037
24.83000, 58.13082
24.85000, 49.59358
24.87000, 38.55870
24.89000, 25.97977
24.91000, 18.53112
24.93000, 6.764647
24.95000, 9.1209002E-02
24.97000, 1.193265
24.99000, 1.734298
25.01000, 2.299147
25.03000, 0.2353390
25.05000, 1.954635
25.07000, 4.107102
25.09000, 5.375364
25.11000, 2.995602
25.13000, 2.129117
25.15000, 1.898596
25.17000, 0.8120290
25.19000, 1.868670
25.21000, 0.6057490
25.23000, 5.679534
25.25000, 6.382819
25.27000, 1.248652
25.29000, 2.033207
25.31000, 1.667688
25.33000, 7.651769
25.35000, 10.24761
25.37000, 14.75531
25.39000, 25.68575
25.41000, 27.75235
25.43000, 39.22829
25.45000, 55.04736
25.47000, 62.88057
25.49000, 65.66042
25.51000, 70.53450
25.53000, 85.73780
25.55000, 99.66632
25.57000, 107.8920
25.59000, 101.9837
25.61000, 90.51571
25.63000, 80.47880
25.65000, 80.20003
25.67000, 80.10727
25.69000, 76.36777
25.71000, 75.09232
25.73000, 78.96291
25.75000, 79.01170
25.77000, 81.43244
25.79000, 74.21629
25.81000, 68.78121
25.83000, 65.53623
25.85000, 65.90319
25.87000, 74.55120
25.89000, 87.45222
25.91000, 87.40028
25.93000, 90.82725
25.95000, 77.48923
25.97000, 65.28551
25.99000, 70.95372
26.01000, 76.28790
26.03000, 78.93096
26.05000, 79.46613
26.07000, 67.55504
26.09000, 59.90685
26.11000, 56.90662
26.13000, 55.28317
26.15000, 49.78458
26.17000, 45.72886
26.19000, 49.60601
26.21000, 46.11298
26.23000, 38.74770
26.25000, 28.94239
26.27000, 13.31075
26.29000, 8.524916
26.31000, 3.567833
26.33000, 2.911437
26.35000, 0.6688500
26.37000, 2.165711
26.39000, 0.1888890
26.41000, 0.5055940
26.43000, 1.703083
26.45000, 1.349477
26.47000, 0.3724450
26.49000, 0.1492970
26.51000, 2.395675
26.53000, 1.571753
26.55000, 1.989863
26.57000, 8.592405
26.59000, 18.23006
26.61000, 22.65842
26.63000, 31.26643
26.65000, 38.97713
26.67000, 43.43499
26.69000, 44.35283
26.71000, 44.92123
26.73000, 45.99052
26.75000, 42.90110
26.77000, 35.18535
26.79000, 37.16122
26.81000, 31.64541
26.83000, 28.48886
26.85000, 24.20923
26.87000, 24.01056
26.89000, 20.97285
26.91000, 20.09850
26.93000, 19.21950
26.95000, 19.74142
26.97000, 17.38741
26.99000, 3.188181
27.01000, 0.5323490
27.03000, 1.815182
27.05000, 0.1420440
27.07000, 0.5409410
27.09000, 3.478432
27.11000, 11.02030
27.13000, 18.38699
27.15000, 9.241694
27.17000, 3.318251
27.19000, 5.483700
27.21000, 9.649102
27.23000, 10.50241
27.25000, 24.88862
27.27000, 39.19418
27.29000, 53.20393
27.31000, 60.86366
27.33000, 83.25887
27.35000, 77.47205
27.37000, 81.88053
27.39000, 96.66990
27.41000, 103.6751
27.43000, 100.8947
27.45000, 88.06781
27.47000, 78.22494
27.49000, 76.19182
27.51000, 75.70476
27.53000, 77.31854
27.55000, 81.14845
27.57000, 68.34537
27.59000, 47.16859
27.61000, 46.54890
27.63000, 34.58425
27.65000, 28.53012
27.67000, 42.88705
27.69000, 52.31250
27.71000, 36.64209
27.73000, 10.22074
27.75000, 2.378401
27.77000, 1.732394
27.79000, 0.7935210
27.81000, 0.2771370
27.83000, 1.633948
27.85000, 2.220992
27.87000, 7.063854
27.89000, 23.19088
27.91000, 22.16408
27.93000, 23.72139
27.95000, 23.68896
27.97000, 29.59274
27.99000, 30.73665
28.01000, 35.32872
28.03000, 24.31403
28.05000, 26.53258
28.07000, 33.08722
28.09000, 51.06701
28.11000, 60.68789
28.13000, 71.33094
28.15000, 70.73625
28.17000, 77.12370
28.19000, 69.48542
28.21000, 71.70731
28.23000, 68.59131
28.25000, 66.30249
28.27000, 66.65495
28.29000, 61.76854
28.31000, 63.27923
28.33000, 60.03820
28.35000, 56.62037
28.37000, 60.17559
28.39000, 63.52257
28.41000, 79.59079
28.43000, 80.97764
28.45000, 89.83272
28.47000, 107.3179
28.49000, 109.1824
28.51000, 100.1230
28.53000, 90.67386
28.55000, 81.49487
28.57000, 73.89705
28.59000, 69.20443
28.61000, 82.85023
28.63000, 64.11704
28.65000, 66.02515
28.67000, 67.81245
28.69000, 51.24709
28.71000, 44.03283
28.73000, 41.34652
28.75000, 37.95274
28.77000, 37.15398
28.79000, 36.87070
28.81000, 43.56472
28.83000, 39.96525
28.85000, 33.91230
28.87000, 37.03996
28.89000, 30.78008
28.91000, 27.58407
28.93000, 19.40030
28.95000, 17.97988
28.97000, 16.30372
28.99000, 10.91400
29.01000, 2.444591
29.03000, 1.463216
29.05000, 3.052335
29.07000, 0.8576870
29.09000, 2.625916
29.11000, 0.1579960
29.13000, 0.7710510
29.15000, 0.4886950
29.17000, 0.5593680
29.19000, 0.3590540
29.21000, 2.300648
29.23000, 0.5047280
29.25000, 1.600950
29.27000, 3.699948
29.29000, 3.571088
29.31000, 5.909686
29.33000, 6.603231
29.35000, 1.713091
29.37000, 1.538250
29.39000, 3.547849
29.41000, 12.93063
29.43000, 19.42943
29.45000, 17.81963
29.47000, 21.17637
29.49000, 15.88058
29.51000, 7.827667
29.53000, 13.29572
29.55000, 10.27349
29.57000, 6.507287
29.59000, 6.267941
29.61000, 7.637307
29.63000, 3.661740
29.65000, 2.939954
29.67000, 0.3963450
29.69000, 3.553024
29.71000, 2.128425
29.73000, 1.027705
29.75000, 0.9119760
29.77000, 6.788233
29.79000, 8.065105
29.81000, 15.04695
29.83000, 11.61619
29.85000, 14.30864
29.87000, 1.440426
29.89000, 13.40805
29.91000, 15.59831
29.93000, 12.52546
29.95000, 23.07594
29.97000, 29.30432
29.99000, 42.98808
30.01000, 51.69112
30.03000, 62.32511
30.05000, 57.53411
30.07000, 51.49628
30.09000, 33.88843
30.11000, 23.54583
30.13000, 27.13120
30.15000, 39.61666
30.17000, 44.76669
30.19000, 50.61676
30.21000, 51.92760
30.23000, 50.81258
30.25000, 57.45651
30.27000, 49.43785
30.29000, 37.19815
30.31000, 39.57248
30.33000, 30.60676
30.35000, 23.07492
30.37000, 24.76612
30.39000, 19.96730
30.41000, 15.09445
30.43000, 16.15501
30.45000, 21.91849
30.47000, 23.05849
30.49000, 38.09047
30.51000, 47.24451
30.53000, 50.54327
30.55000, 54.91115
30.57000, 54.53091
30.59000, 59.71757
30.61000, 62.63914
30.63000, 57.62765
30.65000, 43.64613
30.67000, 43.80257
30.69000, 49.82808
30.71000, 50.87352
30.73000, 57.10099
30.75000, 51.42245
30.77000, 49.85291
30.79000, 36.46147
30.81000, 18.11012
30.83000, 21.01394
30.85000, 18.69609
30.87000, 20.98869
30.89000, 24.31952
30.91000, 14.94571
30.93000, 16.04910
30.95000, 19.10886
30.97000, 15.09287
30.99000, 31.57699
31.01000, 40.75318
31.03000, 28.24734
31.05000, 17.82353
31.07000, 25.65369
31.09000, 27.83041
31.11000, 26.91923
31.13000, 29.21031
31.15000, 13.95909
31.17000, 14.95111
31.19000, 20.74541
31.21000, 34.52513
31.23000, 31.30234
31.25000, 33.25981
31.27000, 35.97105
31.29000, 30.88564
31.31000, 16.91681
31.33000, 15.06813
31.35000, 14.60292
31.37000, 10.11543
31.39000, 22.70981
31.41000, 14.39270
31.43000, 23.22238
31.45000, 33.97551
31.47000, 39.23000
31.49000, 39.30016
31.51000, 45.64986
31.53000, 49.76461
31.55000, 37.06315
31.57000, 32.19610
31.59000, 42.65145
31.61000, 49.23727
31.63000, 53.31452
31.65000, 57.69742
31.67000, 58.37041
31.69000, 55.83878
31.71000, 54.30021
31.73000, 68.97117
31.75000, 50.60254
31.77000, 46.88356
31.79000, 53.92658
31.81000, 40.61785
31.83000, 51.09008
31.85000, 58.23860
31.87000, 56.35378
31.89000, 58.18653
31.91000, 66.60587
31.93000, 60.58583
31.95000, 62.21273
31.97000, 57.09121
31.99000, 52.14832
32.01000, 50.43299
32.03000, 50.63541
32.05000, 51.76289
32.07000, 41.41095
32.09000, 28.71021
32.11000, 27.96761
32.13000, 28.95953
32.15000, 29.56038
32.17000, 31.51343
32.19000, 29.26933
32.21000, 28.66116
32.23000, 22.89080
32.25000, 24.96213
32.27000, 17.63789
32.29000, 13.82524
32.31000, 9.224878
32.33000, 6.336335
32.35000, 13.82568
32.37000, 12.56435
32.39000, 18.58947
32.41000, 28.15241
32.43000, 17.21077
32.45000, 8.741021
32.47000, 12.75044
32.49000, 23.27570
32.51000, 37.71318
32.53000, 36.70483
32.55000, 51.68582
32.57000, 69.45667
32.59000, 76.30953
32.61000, 61.58267
32.63000, 52.45348
32.65000, 35.89013
32.67000, 30.73971
32.69000, 23.47909
32.71000, 17.78426
32.73000, 18.07935
32.75000, 19.02846
32.77000, 16.46140
32.79000, 10.05505
32.81000, 4.384498
32.83000, 1.523655
32.85000, 1.868124
32.87000, 0.2765610
32.89000, 9.947024
32.91000, 6.849497
32.93000, 4.9121998E-02
32.95000, 9.341210
32.97000, 16.49244
32.99000, 15.19576
33.01000, 34.88130
33.03000, 37.44030
33.05000, 44.29078
33.07000, 45.99557
33.09000, 29.91789
33.11000, 20.60081
33.13000, 22.28011
33.15000, 32.92218
33.17000, 30.28572
33.19000, 28.30164
33.21000, 30.47985
33.23000, 21.77598
33.25000, 16.44245
33.27000, 18.55352
33.29000, 20.43599
33.31000, 33.33813
33.33000, 56.36851
33.35000, 50.31848
33.37000, 40.81461
33.39000, 31.58959
33.41000, 13.76271
33.43000, 4.902354
33.45000, 11.23124
33.47000, 1.491291
33.49000, 3.309602
33.51000, 0.8372240
33.53000, 2.004217
33.55000, 12.35186
33.57000, 20.08282
33.59000, 20.90302
33.61000, 11.85548
33.63000, 3.125991
33.65000, 0.8201600
33.67000, 0.2398180
33.69000, 1.973212
33.71000, 7.407444
33.73000, 8.482416
33.75000, 2.394658
33.77000, 0.8167440
33.79000, 6.328452
33.81000, 5.062870
33.83000, 1.978996
33.85000, 2.644850
33.87000, 2.158328
33.89000, 6.637037
33.91000, 18.98155
33.93000, 12.20590
33.95000, 0.8767560
33.97000, 2.471899
33.99000, 3.944441
34.01000, 5.513062
34.03000, 1.609715
34.05000, 1.355941
34.07000, 0.6185940
34.09000, 1.260727
34.11000, 4.666052
34.13000, 12.90472
34.15000, 13.50910
34.17000, 14.41365
34.19000, 28.23557
34.21000, 36.20904
34.23000, 30.05130
34.25000, 19.54833
34.27000, 12.88817
34.29000, 7.718008
34.31000, 16.47197
34.33000, 18.09567
34.35000, 20.80617
34.37000, 17.54119
34.39000, 6.108460
34.41000, 5.970232
34.43000, 12.07729
34.45000, 24.58669
34.47000, 29.18971
34.49000, 34.44736
34.51000, 40.90499
34.53000, 33.38950
34.55000, 20.30354
34.57000, 11.73896
34.59000, 8.085549
34.61000, 0.2734970
34.63000, 0.5733960
34.65000, 3.741373
34.67000, 17.22469
34.69000, 25.47944
34.71000, 20.29397
34.73000, 22.61393
34.75000, 27.47876
34.77000, 30.26632
34.79000, 25.39702
34.81000, 24.07967
34.83000, 27.77543
34.85000, 14.48616
34.87000, 13.65280
34.89000, 31.08900
34.91000, 26.87275
34.93000, 38.75776
34.95000, 50.53204
34.97000, 35.25001
34.99000, 22.57835
35.01000, 23.98621
35.03000, 22.77853
35.05000, 34.57013
35.07000, 29.80375
35.09000, 23.44665
35.11000, 27.16779
35.13000, 17.64552
35.15000, 24.84863
35.17000, 52.11815
35.19000, 64.83657
35.21000, 57.81351
35.23000, 52.38570
35.25000, 28.99195
35.27000, 18.82314
35.29000, 5.846648
35.31000, 1.358895
35.33000, 14.94417
35.35000, 27.28486
35.37000, 29.33680
35.39000, 33.64022
35.41000, 37.14280
35.43000, 34.33386
35.45000, 40.59873
35.47000, 31.20723
35.49000, 34.92952
35.51000, 41.31152
35.53000, 34.79877
35.55000, 29.95321
35.57000, 28.75408
35.59000, 0.9456470
35.61000, 0.9027690
35.63000, 5.8109000E-02
35.65000, 1.3694000E-02
35.67000, 3.011417
35.69000, 32.40669
35.71000, 47.00227
35.73000, 36.82024
35.75000, 17.40489
35.77000, 8.439788
35.79000, 6.848468
35.81000, 3.428674
35.83000, 0.0000000E+00
##END=



