##NAMES=Widenmannite
##RRUFFID=R080029
##IDEAL CHEMISTRY=Pb^2+^_2_U^6+^O_2_(CO_3_)_2_(OH)_2_
##LOCALITY=Pribram, Bohemia, Czechoslovakia
##OWNER=RRUFF
##SOURCE=William W. Pinch
##DESCRIPTION=Spherical aggregates of tan to colorless acicular crystals
##DIFFRACTION SAMPLE DESCRIPTION=Powder, using Mo radiation
##STATUS=The identification of this mineral is not yet confirmed.
##URL=rruff.info/R080029
5.590000, 0.0000000E+00
5.610000, 2.885162
5.630000, 4.167969
5.650000, 0.6185610
5.670000, 3.844086
5.690000, 9.825256
5.710000, 17.02185
5.730000, 18.80420
5.750000, 18.44983
5.770000, 20.29630
5.790000, 27.91342
5.810000, 39.04071
5.830000, 44.06848
5.850000, 44.93451
5.870000, 49.54709
5.890000, 48.48453
5.910000, 38.95850
5.930000, 29.04684
5.950000, 22.67847
5.970000, 19.78662
5.990000, 18.12366
6.010000, 25.21948
6.030000, 32.26581
6.050000, 33.60968
6.070000, 32.35730
6.090000, 29.73474
6.110000, 32.17606
6.130000, 42.54944
6.150000, 52.76520
6.170000, 52.06512
6.190000, 53.31305
6.210000, 58.52646
6.230000, 75.81915
6.250000, 90.71371
6.270000, 97.90610
6.290000, 102.9836
6.310000, 107.3161
6.330000, 102.6790
6.350000, 97.72141
6.370000, 98.12579
6.390000, 94.26855
6.410000, 78.15085
6.430000, 70.99527
6.450000, 67.04425
6.470000, 66.21844
6.490000, 65.28546
6.510000, 55.84299
6.530000, 51.70660
6.550000, 49.94775
6.570000, 48.71362
6.590000, 44.87100
6.610000, 45.36664
6.630000, 45.98239
6.650000, 46.49500
6.670000, 50.57620
6.690000, 53.38196
6.710000, 41.07098
6.730000, 22.02423
6.750000, 6.098450
6.770000, 2.623383
6.790000, 0.7561950
6.810000, 10.33405
6.830000, 7.807098
6.850000, 7.722809
6.870000, 12.36197
6.890000, 19.05316
6.910000, 24.24283
6.930000, 17.32935
6.950000, 12.01697
6.970000, 18.47208
6.990000, 22.89908
7.010000, 18.50574
7.030000, 15.31137
7.050000, 14.89291
7.070000, 16.19702
7.090000, 14.48181
7.110000, 10.02042
7.130000, 3.145844
7.150000, 5.184082
7.170000, 13.18008
7.190000, 17.33914
7.210000, 14.57373
7.230000, 16.69278
7.250000, 15.39529
7.270000, 5.029114
7.290000, 2.783295
7.310000, 2.200134
7.330000, 1.995911
7.350000, 4.437439
7.370000, 8.714417
7.390000, 9.968262
7.410000, 5.441498
7.430000, 0.9001460
7.450000, 1.177917
7.470000, 2.095825
7.490000, 0.2319640
7.510000, 1.032898
7.530000, 4.039001
7.550000, 10.60233
7.570000, 14.78781
7.590000, 18.15149
7.610000, 23.68634
7.630000, 21.61136
7.650000, 23.52646
7.670000, 24.41769
7.690000, 19.37903
7.710000, 11.92545
7.730000, 8.857605
7.750000, 7.454712
7.770000, 5.977966
7.790000, 9.710327
7.810000, 9.058838
7.830000, 12.70142
7.850000, 17.63901
7.870000, 11.35867
7.890000, 5.197418
7.910000, 6.468140
7.930000, 6.193848
7.950000, 6.640533
7.970000, 9.797241
7.990000, 8.151825
8.010000, 8.854706
8.030000, 6.453247
8.050000, 1.688965
8.070000, 2.797943
8.090000, 1.340698
8.110000, 2.175659
8.130000, 12.35858
8.150000, 19.19443
8.170000, 15.73450
8.190000, 13.64996
8.210000, 13.57935
8.230000, 13.28812
8.250000, 9.389893
8.270000, 7.907104
8.290000, 11.33258
8.310000, 14.48086
8.330000, 13.65176
8.350000, 8.855011
8.370000, 2.791382
8.390000, 2.313263
8.410000, 2.859406
8.430000, 3.255249
8.450000, 6.795044
8.470000, 6.125427
8.490000, 3.875580
8.510000, 0.9033200
8.530000, 8.919891
8.550000, 13.76321
8.570000, 10.45483
8.590000, 9.117889
8.610000, 8.001282
8.630000, 10.51846
8.650000, 12.70538
8.670000, 11.53757
8.690000, 9.485260
8.710000, 9.859802
8.730000, 10.89841
8.750000, 10.61453
8.770000, 12.20294
8.790000, 16.54401
8.810000, 20.04041
8.830000, 22.74142
8.850000, 23.76642
8.870000, 20.48105
8.890000, 14.69223
8.910000, 9.555939
8.930000, 6.205597
8.950000, 6.415649
8.970000, 6.513184
8.990000, 3.612152
9.010000, 2.426483
9.030000, 1.169800
9.050000, 4.940071
9.070000, 7.184021
9.090000, 16.40533
9.110000, 26.73596
9.130000, 36.30472
9.150000, 45.63669
9.170000, 58.41232
9.190000, 75.26764
9.210000, 98.13406
9.230000, 119.2838
9.250000, 139.8156
9.270000, 163.8446
9.290000, 189.1838
9.310000, 223.4681
9.330000, 256.8965
9.350000, 291.2372
9.370000, 326.2791
9.390000, 363.4866
9.410000, 391.1962
9.430000, 409.1062
9.450000, 420.0696
9.470000, 416.2101
9.490000, 401.4939
9.510000, 390.4605
9.530000, 364.3413
9.550000, 339.9172
9.570000, 312.0630
9.590000, 278.9156
9.610000, 257.2981
9.630000, 256.1405
9.650000, 266.0397
9.670000, 292.7038
9.690000, 333.1667
9.710000, 393.8740
9.730000, 469.2342
9.750000, 554.8312
9.770000, 639.5830
9.790000, 711.9545
9.810000, 761.5482
9.830000, 797.2540
9.850000, 803.7179
9.870000, 779.8969
9.890000, 721.9313
9.910000, 647.8981
9.930000, 563.9741
9.950000, 476.9678
9.970000, 396.6142
9.990000, 327.8584
10.01000, 272.9433
10.03000, 226.4538
10.05000, 185.3921
10.07000, 158.0550
10.09000, 145.2286
10.11000, 136.5840
10.13000, 129.3749
10.15000, 131.6306
10.17000, 146.2969
10.19000, 155.8068
10.21000, 166.2603
10.23000, 180.8145
10.25000, 201.5382
10.27000, 214.0995
10.29000, 224.9084
10.31000, 231.4080
10.33000, 230.9250
10.35000, 221.8866
10.37000, 213.4958
10.39000, 201.0627
10.41000, 189.8192
10.43000, 173.2911
10.45000, 149.9958
10.47000, 128.0187
10.49000, 115.4850
10.51000, 103.8715
10.53000, 92.19028
10.55000, 79.90024
10.57000, 57.28534
10.59000, 42.45950
10.61000, 32.33777
10.63000, 20.12610
10.65000, 15.34839
10.67000, 12.73065
10.69000, 6.036896
10.71000, 1.611084
10.73000, 7.124298
10.75000, 13.02744
10.77000, 13.53464
10.79000, 12.05896
10.81000, 6.537994
10.83000, 3.357941
10.85000, 1.554901
10.87000, 1.314667
10.89000, 2.605103
10.91000, 1.515442
10.93000, 2.508057
10.95000, 0.3775940
10.97000, 1.380585
10.99000, 8.4686004E-02
11.01000, 2.085144
11.03000, 2.680450
11.05000, 6.673492
11.07000, 9.635010
11.09000, 10.35834
11.11000, 7.232758
11.13000, 3.265930
11.15000, 2.658295
11.17000, 5.471466
11.19000, 2.475769
11.21000, 0.9021000
11.23000, 2.486359
11.25000, 9.043213
11.27000, 18.28662
11.29000, 20.92352
11.31000, 18.88599
11.33000, 12.91495
11.35000, 10.60342
11.37000, 10.27637
11.39000, 10.33484
11.41000, 14.54172
11.43000, 22.94586
11.45000, 23.19629
11.47000, 15.97263
11.49000, 10.34836
11.51000, 7.562592
11.53000, 12.38321
11.55000, 15.74026
11.57000, 16.43988
11.59000, 12.45389
11.61000, 10.29333
11.63000, 9.909119
11.65000, 6.212311
11.67000, 6.988861
11.69000, 8.380768
11.71000, 8.782074
11.73000, 6.615692
11.75000, 8.019623
11.77000, 8.690887
11.79000, 11.68445
11.81000, 8.958344
11.83000, 7.885559
11.85000, 10.51611
11.87000, 13.42593
11.89000, 16.41006
11.91000, 15.86441
11.93000, 11.50613
11.95000, 8.694061
11.97000, 13.14127
11.99000, 16.13275
12.01000, 19.59943
12.03000, 20.96338
12.05000, 24.46555
12.07000, 29.68924
12.09000, 37.05042
12.11000, 52.68182
12.13000, 75.06671
12.15000, 105.8401
12.17000, 148.1841
12.19000, 197.4850
12.21000, 246.1445
12.23000, 302.6895
12.25000, 363.1044
12.27000, 424.5743
12.29000, 482.6811
12.31000, 528.4538
12.33000, 545.2271
12.35000, 543.6378
12.37000, 527.3785
12.39000, 496.9964
12.41000, 460.6678
12.43000, 428.0813
12.45000, 403.7469
12.47000, 388.0263
12.49000, 384.9548
12.51000, 413.2953
12.53000, 448.1027
12.55000, 500.6960
12.57000, 570.3943
12.59000, 629.3216
12.61000, 690.3647
12.63000, 747.6186
12.65000, 785.8638
12.67000, 807.5894
12.69000, 811.8563
12.71000, 795.1137
12.73000, 762.4423
12.75000, 726.9016
12.77000, 672.1918
12.79000, 616.3826
12.81000, 568.3235
12.83000, 533.0611
12.85000, 506.2695
12.87000, 484.4438
12.89000, 473.0418
12.91000, 468.1675
12.93000, 468.4200
12.95000, 474.3183
12.97000, 489.7391
12.99000, 496.0709
13.01000, 494.5312
13.03000, 486.7083
13.05000, 469.0911
13.07000, 439.4385
13.09000, 403.6996
13.11000, 357.7532
13.13000, 313.0661
13.15000, 262.4668
13.17000, 218.7003
13.19000, 175.8859
13.21000, 140.2774
13.23000, 112.5593
13.25000, 91.06686
13.27000, 74.74353
13.29000, 57.41080
13.31000, 46.52829
13.33000, 42.22339
13.35000, 39.67712
13.37000, 39.17435
13.39000, 40.59790
13.41000, 41.65442
13.43000, 41.84100
13.45000, 40.24805
13.47000, 36.80417
13.49000, 31.75302
13.51000, 31.74414
13.53000, 38.39706
13.55000, 45.14709
13.57000, 51.69165
13.59000, 62.46201
13.61000, 75.67200
13.63000, 90.34210
13.65000, 104.8156
13.67000, 115.8586
13.69000, 124.7639
13.71000, 131.7676
13.73000, 133.9929
13.75000, 137.0134
13.77000, 135.2943
13.79000, 131.5414
13.81000, 126.5084
13.83000, 117.7701
13.85000, 109.1841
13.87000, 98.71750
13.89000, 85.67313
13.91000, 73.27808
13.93000, 60.70731
13.95000, 46.20981
13.97000, 40.21762
13.99000, 33.14566
14.01000, 22.75797
14.03000, 18.34451
14.05000, 13.62531
14.07000, 12.38831
14.09000, 17.64450
14.11000, 19.55396
14.13000, 16.94763
14.15000, 10.66043
14.17000, 5.976440
14.19000, 4.624603
14.21000, 5.668915
14.23000, 6.518433
14.25000, 7.466064
14.27000, 10.64981
14.29000, 15.76166
14.31000, 18.26962
14.33000, 21.91299
14.35000, 25.30905
14.37000, 25.48035
14.39000, 27.13776
14.41000, 23.00220
14.43000, 18.40768
14.45000, 19.75336
14.47000, 18.60175
14.49000, 20.76303
14.51000, 22.40067
14.53000, 14.73694
14.55000, 7.779999
14.57000, 2.003113
14.59000, 0.4405820
14.61000, 2.815430
14.63000, 2.812927
14.65000, 2.097626
14.67000, 0.2695920
14.69000, 0.7854610
14.71000, 3.779083
14.73000, 5.799652
14.75000, 10.82904
14.77000, 16.15689
14.79000, 21.31613
14.81000, 24.30215
14.83000, 28.45001
14.85000, 32.27960
14.87000, 32.42297
14.89000, 33.37106
14.91000, 35.40588
14.93000, 39.05444
14.95000, 41.27078
14.97000, 41.16977
14.99000, 39.93152
15.01000, 36.06100
15.03000, 34.68210
15.05000, 39.46899
15.07000, 41.45651
15.09000, 42.57175
15.11000, 39.66260
15.13000, 41.51517
15.15000, 41.23541
15.17000, 40.78198
15.19000, 43.01801
15.21000, 44.22458
15.23000, 44.45731
15.25000, 44.04175
15.27000, 42.16479
15.29000, 41.51678
15.31000, 40.78574
15.33000, 39.83722
15.35000, 39.57285
15.37000, 35.18622
15.39000, 29.65524
15.41000, 24.27582
15.43000, 16.09796
15.45000, 10.09082
15.47000, 6.570648
15.49000, 3.450500
15.51000, 1.965672
15.53000, 2.636200
15.55000, 2.892456
15.57000, 5.335968
15.59000, 9.082733
15.61000, 8.777222
15.63000, 11.91422
15.65000, 5.675476
15.67000, 1.297028
15.69000, 2.002747
15.71000, 3.355438
15.73000, 4.941315
15.75000, 2.617645
15.77000, 6.495056
15.79000, 9.021179
15.81000, 17.08334
15.83000, 23.07175
15.85000, 30.30215
15.87000, 42.15524
15.89000, 55.06815
15.91000, 71.55023
15.93000, 91.65967
15.95000, 103.0243
15.97000, 108.0466
15.99000, 112.7091
16.01000, 119.6182
16.03000, 126.3349
16.05000, 129.1968
16.07000, 126.5612
16.09000, 123.2929
16.11000, 127.3606
16.13000, 134.5345
16.15000, 136.9536
16.17000, 139.8459
16.19000, 138.5954
16.21000, 137.1346
16.23000, 135.7742
16.25000, 131.6543
16.27000, 123.3036
16.29000, 119.7634
16.31000, 122.6065
16.33000, 129.6781
16.35000, 136.3520
16.37000, 149.5093
16.39000, 168.1109
16.41000, 182.2490
16.43000, 199.9433
16.45000, 222.2310
16.47000, 241.4001
16.49000, 254.1846
16.51000, 264.7203
16.53000, 271.0565
16.55000, 270.6869
16.57000, 261.2558
16.59000, 242.8970
16.61000, 213.0925
16.63000, 181.8055
16.65000, 145.6917
16.67000, 112.4853
16.69000, 82.20813
16.71000, 54.21237
16.73000, 34.80298
16.75000, 22.01788
16.77000, 14.07413
16.79000, 8.829742
16.81000, 5.245697
16.83000, 2.031830
16.85000, 2.232788
16.87000, 3.833588
16.89000, 2.146515
16.91000, 1.586792
16.93000, 1.130951
16.95000, 1.109192
16.97000, 0.3064880
16.99000, 9.6648999E-02
17.01000, 1.994263
17.03000, 2.534241
17.05000, 1.760681
17.07000, 2.706860
17.09000, 2.806641
17.11000, 2.356964
17.13000, 2.808441
17.15000, 1.664795
17.17000, 0.6116330
17.19000, 3.111694
17.21000, 6.314270
17.23000, 12.05927
17.25000, 25.37668
17.27000, 42.22760
17.29000, 58.69293
17.31000, 70.84674
17.33000, 82.29099
17.35000, 94.87070
17.37000, 109.6879
17.39000, 124.5645
17.41000, 135.6446
17.43000, 145.0641
17.45000, 147.4961
17.47000, 146.9987
17.49000, 136.7456
17.51000, 125.9450
17.53000, 114.7599
17.55000, 104.6384
17.57000, 99.42026
17.59000, 89.19360
17.61000, 72.01947
17.63000, 55.14883
17.65000, 41.03766
17.67000, 31.71979
17.69000, 22.50693
17.71000, 17.84296
17.73000, 13.27780
17.75000, 14.16016
17.77000, 15.69598
17.79000, 16.34436
17.81000, 16.73322
17.83000, 11.51120
17.85000, 10.51917
17.87000, 9.334747
17.89000, 7.855774
17.91000, 4.081238
17.93000, 3.109039
17.95000, 8.421326
17.97000, 15.52737
17.99000, 23.71896
18.01000, 31.17560
18.03000, 33.09738
18.05000, 37.46106
18.07000, 40.28305
18.09000, 40.08804
18.11000, 38.25247
18.13000, 37.37759
18.15000, 35.84976
18.17000, 42.20593
18.19000, 49.55966
18.21000, 51.65598
18.23000, 47.67786
18.25000, 36.52032
18.27000, 29.22238
18.29000, 22.83694
18.31000, 19.22711
18.33000, 14.95087
18.35000, 11.15515
18.37000, 9.376007
18.39000, 7.193420
18.41000, 3.306427
18.43000, 4.438965
18.45000, 5.462067
18.47000, 4.005768
18.49000, 1.703033
18.51000, 2.791748
18.53000, 6.351044
18.55000, 7.138885
18.57000, 2.206390
18.59000, 0.3196410
18.61000, 4.604218
18.63000, 9.325684
18.65000, 4.069763
18.67000, 4.967468
18.69000, 6.130829
18.71000, 5.808807
18.73000, 13.69644
18.75000, 24.44675
18.77000, 31.64871
18.79000, 38.66235
18.81000, 49.11868
18.83000, 67.03665
18.85000, 83.86337
18.87000, 92.01279
18.89000, 97.06097
18.91000, 108.0589
18.93000, 115.7565
18.95000, 114.5500
18.97000, 115.8002
18.99000, 118.1842
19.01000, 120.8000
19.03000, 125.0187
19.05000, 122.8882
19.07000, 120.3235
19.09000, 123.8127
19.11000, 127.8947
19.13000, 124.3036
19.15000, 118.7644
19.17000, 108.1380
19.19000, 104.2735
19.21000, 107.7080
19.23000, 114.7251
19.25000, 118.3556
19.27000, 119.5570
19.29000, 121.0556
19.31000, 125.3302
19.33000, 141.7589
19.35000, 161.2016
19.37000, 178.8518
19.39000, 188.4985
19.41000, 200.2072
19.43000, 214.3003
19.45000, 220.9655
19.47000, 223.0893
19.49000, 218.3656
19.51000, 210.9937
19.53000, 201.1604
19.55000, 184.5604
19.57000, 169.0435
19.59000, 152.8129
19.61000, 127.4177
19.63000, 111.7926
19.65000, 93.38068
19.67000, 74.74289
19.69000, 62.32928
19.71000, 49.27277
19.73000, 40.57248
19.75000, 32.75534
19.77000, 25.70535
19.79000, 20.40353
19.81000, 18.55890
19.83000, 15.02048
19.85000, 8.669220
19.87000, 6.580139
19.89000, 9.925262
19.91000, 10.58859
19.93000, 14.69812
19.95000, 16.04785
19.97000, 14.06381
19.99000, 12.19296
20.01000, 7.886322
20.03000, 1.964966
20.05000, 1.534149
20.07000, 1.231415
20.09000, 6.186279
20.11000, 4.684357
20.13000, 2.631744
20.15000, 1.135376
20.17000, 1.797272
20.19000, 0.8054810
20.21000, 0.8380740
20.23000, 5.946625
20.25000, 6.473572
20.27000, 9.356140
20.29000, 10.57877
20.31000, 14.31812
20.33000, 14.61926
20.35000, 9.434723
20.37000, 0.5552670
20.39000, 3.340332
20.41000, 9.783112
20.43000, 27.51001
20.45000, 38.91830
20.47000, 52.27893
20.49000, 69.58218
20.51000, 82.96994
20.53000, 93.39310
20.55000, 103.7598
20.57000, 110.3912
20.59000, 108.9565
20.61000, 117.8753
20.63000, 116.1696
20.65000, 113.3363
20.67000, 116.4454
20.69000, 116.8908
20.71000, 108.0667
20.73000, 91.84000
20.75000, 82.31772
20.77000, 75.55679
20.79000, 70.06836
20.81000, 65.32507
20.83000, 56.37552
20.85000, 53.21536
20.87000, 58.46460
20.89000, 59.09784
20.91000, 64.92471
20.93000, 83.65128
20.95000, 97.66440
20.97000, 120.0193
20.99000, 140.6394
21.01000, 148.9109
21.03000, 162.8058
21.05000, 170.3474
21.07000, 178.2273
21.09000, 193.8997
21.11000, 202.2097
21.13000, 202.5073
21.15000, 205.0385
21.17000, 196.7460
21.19000, 180.5341
21.21000, 172.3896
21.23000, 170.7880
21.25000, 166.3041
21.27000, 159.5126
21.29000, 150.2651
21.31000, 139.3401
21.33000, 132.4782
21.35000, 125.7487
21.37000, 123.9496
21.39000, 127.9632
21.41000, 137.7715
21.43000, 159.3684
21.45000, 174.0436
21.47000, 175.6533
21.49000, 180.5836
21.51000, 181.8715
21.53000, 178.7519
21.55000, 178.9730
21.57000, 181.2565
21.59000, 178.8196
21.61000, 173.0154
21.63000, 169.9529
21.65000, 176.5885
21.67000, 180.0309
21.69000, 177.7235
21.71000, 182.9812
21.73000, 186.4948
21.75000, 178.7867
21.77000, 174.6758
21.79000, 178.1510
21.81000, 187.1694
21.83000, 195.2662
21.85000, 196.9525
21.87000, 201.1417
21.89000, 201.2742
21.91000, 201.8190
21.93000, 203.5742
21.95000, 207.7738
21.97000, 208.3385
21.99000, 205.9178
22.01000, 199.5445
22.03000, 187.9267
22.05000, 174.9864
22.07000, 171.4605
22.09000, 166.1780
22.11000, 158.0941
22.13000, 146.1726
22.15000, 136.2566
22.17000, 122.9640
22.19000, 109.4479
22.21000, 104.5522
22.23000, 90.70099
22.25000, 73.95621
22.27000, 73.52695
22.29000, 67.43307
22.31000, 51.30569
22.33000, 39.75174
22.35000, 32.60223
22.37000, 23.01227
22.39000, 15.65720
22.41000, 14.10916
22.43000, 17.59848
22.45000, 16.57742
22.47000, 14.03058
22.49000, 12.82022
22.51000, 15.52826
22.53000, 15.57880
22.55000, 15.75778
22.57000, 14.89517
22.59000, 10.44202
22.61000, 14.43948
22.63000, 8.232422
22.65000, 17.88739
22.67000, 18.88000
22.69000, 16.23361
22.71000, 12.00153
22.73000, 10.07608
22.75000, 8.022339
22.77000, 15.81326
22.79000, 21.16162
22.81000, 31.63062
22.83000, 39.80917
22.85000, 43.36237
22.87000, 41.92905
22.89000, 38.49936
22.91000, 40.37317
22.93000, 42.26355
22.95000, 45.02756
22.97000, 51.48810
22.99000, 60.27515
23.01000, 65.16275
23.03000, 70.72595
23.05000, 73.21762
23.07000, 72.05588
23.09000, 65.60266
23.11000, 54.17297
23.13000, 43.33984
23.15000, 35.34521
23.17000, 30.07416
23.19000, 25.38760
23.21000, 26.08856
23.23000, 31.48306
23.25000, 30.36209
23.27000, 30.65268
23.29000, 28.76578
23.31000, 31.23328
23.33000, 31.48065
23.35000, 37.55637
23.37000, 42.42963
23.39000, 49.02673
23.41000, 57.38632
23.43000, 58.50742
23.45000, 59.73505
23.47000, 65.53110
23.49000, 74.02866
23.51000, 74.09528
23.53000, 70.63815
23.55000, 71.76810
23.57000, 83.18478
23.59000, 96.00537
23.61000, 94.04834
23.63000, 89.35675
23.65000, 89.89069
23.67000, 88.97086
23.69000, 79.30267
23.71000, 66.83380
23.73000, 59.01141
23.75000, 52.36642
23.77000, 50.39038
23.79000, 50.55197
23.81000, 48.03433
23.83000, 44.63376
23.85000, 39.63367
23.87000, 37.33606
23.89000, 35.89374
23.91000, 35.90466
23.93000, 33.64877
23.95000, 27.47906
23.97000, 23.70551
23.99000, 19.41718
24.01000, 14.25431
24.03000, 10.21653
24.05000, 5.635834
24.07000, 3.459351
24.09000, 1.169647
24.11000, 2.785797
24.13000, 5.833038
24.15000, 4.054474
24.17000, 2.739960
24.19000, 5.202576
24.21000, 3.800751
24.23000, 0.5753480
24.25000, 1.459534
24.27000, 0.2688290
24.29000, 0.4578860
24.31000, 5.707214
24.33000, 13.55740
24.35000, 22.30161
24.37000, 21.60892
24.39000, 20.77130
24.41000, 22.53076
24.43000, 21.90622
24.45000, 18.54477
24.47000, 10.16232
24.49000, 3.937958
24.51000, 7.352600
24.53000, 7.149323
24.55000, 6.088043
24.57000, 2.995819
24.59000, 2.527924
24.61000, 1.932770
24.63000, 1.123291
24.65000, 2.807159
24.67000, 5.485046
24.69000, 7.953949
24.71000, 8.748840
24.73000, 10.11377
24.75000, 14.11478
24.77000, 18.05380
24.79000, 19.41702
24.81000, 15.56247
24.83000, 16.93222
24.85000, 13.71021
24.87000, 15.58154
24.89000, 18.01123
24.91000, 21.54379
24.93000, 27.04449
24.95000, 34.35217
24.97000, 43.54776
24.99000, 48.09329
25.01000, 44.56488
25.03000, 39.92374
25.05000, 36.04291
25.07000, 37.66830
25.09000, 41.55212
25.11000, 43.22137
25.13000, 35.89307
25.15000, 25.01288
25.17000, 21.63968
25.19000, 31.97736
25.21000, 31.86292
25.23000, 32.11331
25.25000, 40.59756
25.27000, 42.09869
25.29000, 38.43265
25.31000, 39.33850
25.33000, 34.79117
25.35000, 35.02673
25.37000, 37.03610
25.39000, 40.15424
25.41000, 43.14120
25.43000, 48.07904
25.45000, 51.05966
25.47000, 50.96609
25.49000, 50.51334
25.51000, 55.67535
25.53000, 56.08020
25.55000, 52.77490
25.57000, 43.86642
25.59000, 31.38907
25.61000, 27.35556
25.63000, 22.45294
25.65000, 12.23517
25.67000, 8.240173
25.69000, 4.421936
25.71000, 7.270508
25.73000, 11.10483
25.75000, 9.453918
25.77000, 7.661743
25.79000, 10.04935
25.81000, 8.380829
25.83000, 7.790344
25.85000, 5.378448
25.87000, 5.579376
25.89000, 2.103088
25.91000, 0.6670530
25.93000, 1.939484
25.95000, 2.112274
25.97000, 2.383209
25.99000, 7.252380
26.01000, 10.70630
26.03000, 6.152161
26.05000, 0.5137020
26.07000, 1.432770
26.09000, 4.305450
26.11000, 9.534027
26.13000, 5.011414
26.15000, 7.032898
26.17000, 2.694305
26.19000, 2.581268
26.21000, 0.8967590
26.23000, 2.693115
26.25000, 5.300507
26.27000, 8.505493
26.29000, 21.79114
26.31000, 38.17938
26.33000, 47.37534
26.35000, 55.51691
26.37000, 63.40210
26.39000, 76.03894
26.41000, 91.10941
26.43000, 109.0862
26.45000, 121.5816
26.47000, 127.2621
26.49000, 131.8772
26.51000, 130.3848
26.53000, 123.4811
26.55000, 111.5051
26.57000, 107.0577
26.59000, 100.1035
26.61000, 93.56317
26.63000, 90.14172
26.65000, 84.89551
26.67000, 84.28238
26.69000, 77.14877
26.71000, 72.78619
26.73000, 69.12979
26.75000, 61.09314
26.77000, 52.81216
26.79000, 48.94482
26.81000, 46.31616
26.83000, 43.00421
26.85000, 33.49588
26.87000, 29.17023
26.89000, 23.55722
26.91000, 19.83789
26.93000, 11.84216
26.95000, 9.383179
26.97000, 12.44589
26.99000, 17.52527
27.01000, 17.57327
27.03000, 18.31396
27.05000, 19.56030
27.07000, 14.31631
27.09000, 15.85593
27.11000, 13.41519
27.13000, 4.554108
27.15000, 0.6703800
27.17000, 4.714233
27.19000, 2.067596
27.21000, 11.23199
27.23000, 20.78217
27.25000, 24.27499
27.27000, 23.76547
27.29000, 32.42484
27.31000, 34.60947
27.33000, 42.23187
27.35000, 45.36902
27.37000, 46.14969
27.39000, 41.50107
27.41000, 42.25613
27.43000, 39.37177
27.45000, 38.21304
27.47000, 45.10294
27.49000, 47.06750
27.51000, 52.45261
27.53000, 69.38132
27.55000, 78.00058
27.57000, 81.04141
27.59000, 81.56479
27.61000, 80.73563
27.63000, 71.27100
27.65000, 66.83685
27.67000, 68.15219
27.69000, 75.67590
27.71000, 80.78110
27.73000, 78.35269
27.75000, 73.51471
27.77000, 72.96112
27.79000, 73.48798
27.81000, 69.26895
27.83000, 56.68295
27.85000, 63.95221
27.87000, 59.51489
27.89000, 57.56415
27.91000, 59.57346
27.93000, 53.99725
27.95000, 43.59702
27.97000, 37.40503
27.99000, 36.86826
28.01000, 32.64780
28.03000, 35.08981
28.05000, 34.94495
28.07000, 35.92252
28.09000, 42.72900
28.11000, 43.97034
28.13000, 52.76709
28.15000, 54.15326
28.17000, 64.03091
28.19000, 75.15964
28.21000, 74.17444
28.23000, 76.51309
28.25000, 81.54352
28.27000, 80.54575
28.29000, 76.02148
28.31000, 81.32877
28.33000, 86.65533
28.35000, 83.52234
28.37000, 75.85153
28.39000, 70.68948
28.41000, 62.24399
28.43000, 59.21579
28.45000, 65.03479
28.47000, 67.97458
28.49000, 67.53836
28.51000, 63.59674
28.53000, 52.08978
28.55000, 44.95227
28.57000, 39.60025
28.59000, 41.29306
28.61000, 46.72449
28.63000, 55.85800
28.65000, 53.37061
28.67000, 51.95154
28.69000, 53.40384
28.71000, 55.09760
28.73000, 57.38672
28.75000, 63.00522
28.77000, 69.47714
28.79000, 69.55545
28.81000, 77.38507
28.83000, 80.94318
28.85000, 70.71008
28.87000, 71.87320
28.89000, 72.56470
28.91000, 69.26755
28.93000, 65.02280
28.95000, 61.46945
28.97000, 47.85013
28.99000, 35.00656
29.01000, 31.11731
29.03000, 39.39154
29.05000, 35.84128
29.07000, 26.44742
29.09000, 22.54727
29.11000, 19.34460
29.13000, 12.48981
29.15000, 10.84677
29.17000, 18.47403
29.19000, 23.04663
29.21000, 23.61047
29.23000, 20.79660
29.25000, 15.51553
29.27000, 13.83423
29.29000, 10.79376
29.31000, 12.19409
29.33000, 24.19971
29.35000, 27.39679
29.37000, 25.65256
29.39000, 30.38007
29.41000, 31.44742
29.43000, 37.26965
29.45000, 42.19275
29.47000, 38.32864
29.49000, 39.59634
29.51000, 37.54391
29.53000, 35.97720
29.55000, 37.96533
29.57000, 42.52811
29.59000, 44.05652
29.61000, 35.52841
29.63000, 26.16422
29.65000, 19.21484
29.67000, 15.91547
29.69000, 11.11172
29.71000, 11.28232
29.73000, 8.368591
29.75000, 10.89377
29.77000, 14.23889
29.79000, 21.06177
29.81000, 38.88504
29.83000, 46.19803
29.85000, 42.61890
29.87000, 38.08463
29.89000, 24.75223
29.91000, 22.92361
29.93000, 23.39053
29.95000, 20.14825
29.97000, 27.57312
29.99000, 34.06430
30.01000, 27.75879
30.03000, 27.56244
30.05000, 25.00632
30.07000, 14.50110
30.09000, 14.82141
30.11000, 16.01227
30.13000, 16.54263
30.15000, 22.74158
30.17000, 30.31259
30.19000, 32.34164
30.21000, 27.48120
30.23000, 28.53970
30.25000, 37.42487
30.27000, 38.58865
30.29000, 25.91440
30.31000, 10.62271
30.33000, 6.359314
30.35000, 1.835846
30.37000, 9.617126
30.39000, 5.012726
30.41000, 9.885681
30.43000, 18.60712
30.45000, 16.59802
30.47000, 11.77139
30.49000, 12.39899
30.51000, 16.89499
30.53000, 16.01746
30.55000, 10.21625
30.57000, 7.196442
30.59000, 3.069885
30.61000, 3.043528
30.63000, 11.87024
30.65000, 6.758362
30.67000, 7.596436
30.69000, 13.67947
30.71000, 8.380402
30.73000, 1.407043
30.75000, 7.760376
30.77000, 4.228760
30.79000, 0.5546260
30.81000, 1.764282
30.83000, 5.465546
30.85000, 6.078918
30.87000, 5.590546
30.89000, 6.676880
30.91000, 9.715825
30.93000, 10.87686
30.95000, 16.36578
30.97000, 23.36484
30.99000, 25.35831
31.01000, 30.79587
31.03000, 29.07520
31.05000, 37.31116
31.07000, 43.14734
31.09000, 43.83185
31.11000, 41.67154
31.13000, 39.98224
31.15000, 32.89868
31.17000, 30.40503
31.19000, 26.58157
31.21000, 21.74826
31.23000, 21.36917
31.25000, 20.36316
31.27000, 21.28915
31.29000, 17.79404
31.31000, 17.52267
31.33000, 21.03925
31.35000, 21.37509
31.37000, 30.85208
31.39000, 40.25232
31.41000, 49.19739
31.43000, 40.03125
31.45000, 22.56406
31.47000, 5.430389
31.49000, 0.5486760
31.51000, 8.339722
31.53000, 15.58267
31.55000, 21.58514
31.57000, 23.62836
31.59000, 25.97372
31.61000, 24.28873
31.63000, 18.67200
31.65000, 16.78821
31.67000, 17.42419
31.69000, 16.65982
31.71000, 9.274353
31.73000, 8.691711
31.75000, 16.44788
31.77000, 25.60599
31.79000, 19.02570
31.81000, 20.30896
31.83000, 15.38220
31.85000, 22.26239
31.87000, 39.41550
31.89000, 44.25751
31.91000, 48.54147
31.93000, 58.25146
31.95000, 64.49542
31.97000, 75.87936
31.99000, 83.12537
32.01000, 70.78757
32.03000, 75.25427
32.05000, 69.47821
32.07000, 76.81873
32.09000, 57.87360
32.11000, 48.32428
32.13000, 39.81262
32.15000, 41.13852
32.17000, 36.49481
32.19000, 33.32867
32.21000, 31.24408
32.23000, 29.25916
32.25000, 26.69940
32.27000, 26.97018
32.29000, 28.53937
32.31000, 41.23972
32.33000, 38.23795
32.35000, 51.27509
32.37000, 37.20822
32.39000, 38.44824
32.41000, 40.13968
32.43000, 34.13870
32.45000, 31.34265
32.47000, 25.93433
32.49000, 16.73599
32.51000, 21.85715
32.53000, 12.94388
32.55000, 7.416138
32.57000, 20.22095
32.59000, 15.61438
32.61000, 5.314392
32.63000, 3.671082
32.65000, 1.811340
32.67000, 0.9606930
32.69000, 7.590088
32.71000, 4.353912
32.73000, 2.189362
32.75000, 6.089325
32.77000, 17.85056
32.79000, 31.92239
32.81000, 35.59460
32.83000, 26.31274
32.85000, 17.43170
32.87000, 17.02393
32.89000, 23.11176
32.91000, 25.17548
32.93000, 39.15167
32.95000, 46.93826
32.97000, 49.93863
32.99000, 54.73743
33.01000, 54.62424
33.03000, 48.47656
33.05000, 51.35797
33.07000, 56.30273
33.09000, 60.35278
33.11000, 72.86581
33.13000, 82.53653
33.15000, 80.45813
33.17000, 74.91812
33.19000, 78.66464
33.21000, 81.36560
33.23000, 75.13406
33.25000, 69.76663
33.27000, 68.96017
33.29000, 73.81171
33.31000, 78.62494
33.33000, 76.48788
33.35000, 66.99518
33.37000, 57.32455
33.39000, 50.15128
33.41000, 58.71094
33.43000, 68.00833
33.45000, 49.82056
33.47000, 42.70065
33.49000, 40.51477
33.51000, 31.52130
33.53000, 28.46161
33.55000, 32.82654
33.57000, 41.25891
33.59000, 40.12302
33.61000, 31.25180
33.63000, 30.61142
33.65000, 29.14966
33.67000, 27.45505
33.69000, 30.17731
33.71000, 18.27457
33.73000, 12.25555
33.75000, 13.52444
33.77000, 4.621460
33.79000, 2.733124
33.81000, 2.300476
33.83000, 10.32239
33.85000, 22.62247
33.87000, 34.40738
33.89000, 41.30109
33.91000, 30.76172
33.93000, 21.58621
33.95000, 8.000885
33.97000, 2.239868
33.99000, 0.0000000E+00
##END=



