##NAMES=Agardite-(Y)
##RRUFFID=R060711
##IDEAL CHEMISTRY=Cu^2+^_6_Y^3+^(As^5+^O_4_)_3_(OH)_6_&#183;3H_2_O
##LOCALITY=Brumado, Bahia, Brazil
##OWNER=RRUFF
##SOURCE=Bob Jenkins
##DESCRIPTION=Mass of pale green fibers
##DIFFRACTION SAMPLE DESCRIPTION=Powder, using Mo radiation
##STATUS=The identification of this mineral has been confirmed by X-ray diffraction and chemical analysis
##URL=rruff.info/R060711
##MEASURED CHEMISTRY=(Cu_5.73_Fe_0.04_)_Σ=5.77_(Y_0.32_Gd_0.10_Nd_0.03_Sm_0.08_Ca_0.39_)_Σ=0.92_[(AsO_4_)_0.79_(PO_4_)_0.06_(SiO_4_)_0.01_]_3_(OH)_6_·4.58H_2_O
##CELL PARAMETERS=a: 13.525(3) b: 13.525(3) c: 5.926(2) alpha: 90 beta: 90 gamma: 120 volume: 938.7(3) crystal system: hexagonal
5.860000, 0.0000000E+00
5.870000, 6.684204
5.880000, 5.274658
5.890000, 0.8381350
5.900000, 0.5012210
5.910000, 2.646606
5.920000, 10.86169
5.930000, 14.65625
5.940000, 14.32581
5.950000, 15.89734
5.960000, 15.53442
5.970000, 14.30652
5.980000, 12.39722
5.990000, 9.353149
6.000000, 10.56274
6.010000, 12.36707
6.020000, 15.99805
6.030000, 17.60840
6.040000, 15.14197
6.050000, 12.55347
6.060000, 14.33850
6.070000, 17.49280
6.080000, 16.38281
6.090000, 21.52551
6.100000, 27.91846
6.110000, 27.19885
6.120000, 28.58484
6.130000, 32.33472
6.140000, 33.05603
6.150000, 39.29749
6.160000, 42.81750
6.170000, 35.65393
6.180000, 24.25427
6.190000, 22.13696
6.200000, 29.25159
6.210000, 36.99756
6.220000, 41.78357
6.230000, 36.75879
6.240000, 33.24231
6.250000, 37.65295
6.260000, 43.36023
6.270000, 44.93311
6.280000, 50.78125
6.290000, 58.44458
6.300000, 52.14380
6.310000, 45.17847
6.320000, 51.29810
6.330000, 62.92212
6.340000, 65.22974
6.350000, 62.21069
6.360000, 60.97424
6.370000, 56.91992
6.380000, 55.13757
6.390000, 60.15649
6.400000, 67.90674
6.410000, 65.33838
6.420000, 64.09058
6.430000, 69.97351
6.440000, 71.34607
6.450000, 66.38098
6.460000, 66.55212
6.470000, 65.87231
6.480000, 57.95093
6.490000, 48.69043
6.500000, 39.66150
6.510000, 38.35803
6.520000, 42.78455
6.530000, 43.33081
6.540000, 38.70752
6.550000, 29.99878
6.560000, 32.40491
6.570000, 39.58594
6.580000, 46.11609
6.590000, 49.88123
6.600000, 55.16040
6.610000, 61.65332
6.620000, 62.96069
6.630000, 63.23218
6.640000, 66.94788
6.650000, 65.21826
6.660000, 59.83289
6.670000, 61.09204
6.680000, 61.82568
6.690000, 59.14417
6.700000, 58.41028
6.710000, 59.03088
6.720000, 50.09595
6.730000, 52.10510
6.740000, 57.94458
6.750000, 56.86768
6.760000, 56.70422
6.770000, 60.20435
6.780000, 62.26794
6.790000, 66.69507
6.800000, 69.19580
6.810000, 64.88000
6.820000, 63.72803
6.830000, 65.84937
6.840000, 64.80420
6.850000, 64.36267
6.860000, 60.16492
6.870000, 50.78052
6.880000, 52.13953
6.890000, 51.44214
6.900000, 51.35852
6.910000, 58.65820
6.920000, 65.30139
6.930000, 67.88806
6.940000, 65.32825
6.950000, 57.40527
6.960000, 58.68237
6.970000, 59.07263
6.980000, 57.30579
6.990000, 52.19275
7.000000, 46.31299
7.010000, 49.57666
7.020000, 56.01343
7.030000, 60.54590
7.040000, 60.91809
7.050000, 61.55371
7.060000, 55.69995
7.070000, 55.49402
7.080000, 62.23120
7.090000, 60.76208
7.100000, 51.35669
7.110000, 48.19653
7.120000, 39.68066
7.130000, 36.03760
7.140000, 33.38635
7.150000, 36.04614
7.160000, 45.29395
7.170000, 50.28894
7.180000, 42.22156
7.190000, 28.89587
7.200000, 26.61426
7.210000, 29.15808
7.220000, 20.49023
7.230000, 18.63879
7.240000, 17.77429
7.250000, 23.38965
7.260000, 27.23645
7.270000, 23.74512
7.280000, 25.64319
7.290000, 14.48035
7.300000, 0.9986570
7.310000, 9.036621
7.320000, 16.73999
7.330000, 18.57874
7.340000, 15.57239
7.350000, 8.621094
7.360000, 9.074829
7.370000, 8.583008
7.380000, 8.016113
7.390000, 11.70349
7.400000, 21.48547
7.410000, 22.95203
7.420000, 19.35266
7.430000, 22.59741
7.440000, 26.66650
7.450000, 27.54944
7.460000, 36.79651
7.470000, 50.72742
7.480000, 57.01233
7.490000, 62.10107
7.500000, 71.24329
7.510000, 79.83936
7.520000, 83.67297
7.530000, 92.55603
7.540000, 97.05798
7.550000, 98.60779
7.560000, 99.10730
7.570000, 101.5837
7.580000, 106.7372
7.590000, 115.3083
7.600000, 122.3267
7.610000, 128.7444
7.620000, 140.7068
7.630000, 148.3521
7.640000, 151.4901
7.650000, 157.8311
7.660000, 162.9849
7.670000, 164.6514
7.680000, 163.1708
7.690000, 162.5831
7.700000, 156.9783
7.710000, 151.8962
7.720000, 150.8768
7.730000, 142.0103
7.740000, 127.2662
7.750000, 118.0450
7.760000, 112.3265
7.770000, 110.6006
7.780000, 112.7069
7.790000, 111.5161
7.800000, 96.61780
7.810000, 90.35217
7.820000, 83.21887
7.830000, 68.08826
7.840000, 56.25012
7.850000, 55.97437
7.860000, 53.33118
7.870000, 42.75037
7.880000, 36.36194
7.890000, 38.88611
7.900000, 43.58276
7.910000, 42.81177
7.920000, 42.80286
7.930000, 40.33630
7.940000, 35.98181
7.950000, 33.90942
7.960000, 34.33936
7.970000, 32.14148
7.980000, 30.44556
7.990000, 21.87170
8.000000, 10.47998
8.010000, 6.970215
8.020000, 11.13269
8.030000, 2.007080
8.040000, 0.8864750
8.050000, 0.5120850
8.060000, 0.3325200
8.070000, 1.624878
8.080000, 3.229370
8.090000, 5.355835
8.100000, 0.2756350
8.110000, 0.3946530
8.120000, 6.356934
8.130000, 14.14136
8.140000, 13.93750
8.150000, 12.48572
8.160000, 12.39563
8.170000, 5.997559
8.180000, 0.9013670
8.190000, 1.863037
8.200000, 1.905640
8.210000, 1.583130
8.220000, 5.303833
8.230000, 5.505737
8.240000, 8.089600
8.250000, 11.85510
8.260000, 11.40405
8.270000, 9.796143
8.280000, 7.991333
8.290000, 10.57983
8.300000, 15.11145
8.310000, 14.55676
8.320000, 14.54712
8.330000, 14.15332
8.340000, 5.836304
8.350000, 7.514771
8.360000, 14.24329
8.370000, 9.941284
8.380000, 1.686157
8.390000, 4.736450
8.400000, 5.953125
8.410000, 3.327393
8.420000, 2.751953
8.430000, 2.944946
8.440000, 1.186890
8.450000, 0.2437740
8.460000, 0.5053710
8.470000, 1.418335
8.480000, 5.237061
8.490000, 2.274048
8.500000, 4.771851
8.510000, 7.552002
8.520000, 8.955566
8.530000, 10.61108
8.540000, 7.668823
8.550000, 2.018921
8.560000, 1.381104
8.570000, 4.215210
8.580000, 7.371460
8.590000, 10.89990
8.600000, 7.680664
8.610000, 5.143311
8.620000, 8.118042
8.630000, 8.694702
8.640000, 10.36365
8.650000, 10.64429
8.660000, 7.827026
8.670000, 5.141602
8.680000, 4.748291
8.690000, 7.126953
8.700000, 2.847412
8.710000, 1.349609
8.720000, 0.2736820
8.730000, 6.260986
8.740000, 7.106934
8.750000, 6.994629
8.760000, 5.844238
8.770000, 10.39526
8.780000, 17.95935
8.790000, 13.43042
8.800000, 2.516602
8.810000, 5.647461
8.820000, 13.76331
8.830000, 27.72107
8.840000, 43.28040
8.850000, 69.71143
8.860000, 97.08411
8.870000, 122.2887
8.880000, 153.9150
8.890000, 188.4529
8.900000, 227.7225
8.910000, 278.8038
8.920000, 338.4670
8.930000, 399.3215
8.940000, 460.9279
8.950000, 520.6959
8.960000, 584.4554
8.970000, 655.4067
8.980000, 727.4995
8.990000, 795.9043
9.000000, 862.0504
9.010000, 935.9780
9.020000, 997.7673
9.030000, 1059.818
9.040000, 1121.921
9.050000, 1188.785
9.060000, 1253.281
9.070000, 1298.978
9.080000, 1338.847
9.090000, 1373.447
9.100000, 1419.249
9.110000, 1451.042
9.120000, 1469.987
9.130000, 1480.913
9.140000, 1485.891
9.150000, 1475.461
9.160000, 1442.692
9.170000, 1408.104
9.180000, 1369.018
9.190000, 1317.483
9.200000, 1273.870
9.210000, 1221.838
9.220000, 1167.918
9.230000, 1115.750
9.240000, 1052.641
9.250000, 997.0247
9.260000, 935.7998
9.270000, 875.2871
9.280000, 812.4353
9.290000, 743.6853
9.300000, 673.7273
9.310000, 603.6697
9.320000, 547.1140
9.330000, 492.6593
9.340000, 442.9464
9.350000, 395.2345
9.360000, 356.7244
9.370000, 322.3754
9.380000, 290.1177
9.390000, 262.3578
9.400000, 239.8066
9.410000, 213.0933
9.420000, 183.9011
9.430000, 157.1604
9.440000, 138.1309
9.450000, 133.0527
9.460000, 126.1862
9.470000, 118.3309
9.480000, 112.9868
9.490000, 114.0695
9.500000, 116.7811
9.510000, 122.8655
9.520000, 131.5269
9.530000, 142.5250
9.540000, 152.2421
9.550000, 161.1749
9.560000, 169.7399
9.570000, 180.8473
9.580000, 201.9265
9.590000, 222.2679
9.600000, 232.9093
9.610000, 243.3196
9.620000, 249.5250
9.630000, 250.8853
9.640000, 258.8711
9.650000, 276.2335
9.660000, 293.7156
9.670000, 313.3416
9.680000, 332.4786
9.690000, 346.4015
9.700000, 357.1346
9.710000, 368.3674
9.720000, 373.5015
9.730000, 377.2797
9.740000, 373.1881
9.750000, 365.0474
9.760000, 363.1471
9.770000, 364.8274
9.780000, 363.4321
9.790000, 353.8351
9.800000, 341.9574
9.810000, 330.8702
9.820000, 316.1638
9.830000, 295.9482
9.840000, 277.6832
9.850000, 260.4889
9.860000, 244.8051
9.870000, 234.4821
9.880000, 218.2296
9.890000, 202.1979
9.900000, 189.0168
9.910000, 167.9525
9.920000, 152.3429
9.930000, 137.8784
9.940000, 127.6003
9.950000, 109.8567
9.960000, 90.36963
9.970000, 81.46985
9.980000, 75.92639
9.990000, 61.54932
10.00000, 58.58691
10.01000, 53.52368
10.02000, 43.55139
10.03000, 41.73975
10.04000, 43.48914
10.05000, 41.99902
10.06000, 42.56006
10.07000, 44.96179
10.08000, 44.40430
10.09000, 39.61755
10.10000, 35.71191
10.11000, 35.21680
10.12000, 36.65259
10.13000, 37.32910
10.14000, 33.74634
10.15000, 36.99451
10.16000, 46.87341
10.17000, 58.39294
10.18000, 67.37354
10.19000, 71.37463
10.20000, 70.21655
10.21000, 71.33936
10.22000, 80.86279
10.23000, 88.27698
10.24000, 94.08203
10.25000, 111.5977
10.26000, 132.1243
10.27000, 142.6315
10.28000, 145.2394
10.29000, 151.2581
10.30000, 162.5674
10.31000, 173.3774
10.32000, 179.6884
10.33000, 180.0598
10.34000, 185.0720
10.35000, 188.3351
10.36000, 185.3286
10.37000, 182.5829
10.38000, 180.3480
10.39000, 176.3237
10.40000, 167.1201
10.41000, 158.1372
10.42000, 153.8250
10.43000, 150.6835
10.44000, 144.7228
10.45000, 137.3328
10.46000, 134.1133
10.47000, 125.2545
10.48000, 120.6967
10.49000, 119.3593
10.50000, 112.1926
10.51000, 104.2866
10.52000, 98.17126
10.53000, 89.82642
10.54000, 85.19250
10.55000, 83.66907
10.56000, 77.18616
10.57000, 70.27380
10.58000, 67.85229
10.59000, 62.26172
10.60000, 49.30188
10.61000, 45.13281
10.62000, 39.20435
10.63000, 29.58655
10.64000, 25.19922
10.65000, 21.92249
10.66000, 14.39648
10.67000, 8.011108
10.68000, 4.836060
10.69000, 0.4016110
10.70000, 5.263794
10.71000, 9.132690
10.72000, 12.14758
10.73000, 10.92920
10.74000, 8.257324
10.75000, 12.35889
10.76000, 14.93445
10.77000, 9.396240
10.78000, 7.843384
10.79000, 8.324585
10.80000, 5.949463
10.81000, 3.137573
10.82000, 6.827881
10.83000, 11.10217
10.84000, 13.54150
10.85000, 16.60559
10.86000, 11.08569
10.87000, 4.887939
10.88000, 4.767944
10.89000, 4.706299
10.90000, 1.494263
10.91000, 5.119629
10.92000, 8.858032
10.93000, 10.23047
10.94000, 12.51672
10.95000, 10.25793
10.96000, 6.855469
10.97000, 4.119019
10.98000, 3.476929
10.99000, 9.648560
11.00000, 14.82361
11.01000, 19.02112
11.02000, 18.17236
11.03000, 17.37622
11.04000, 17.61108
11.05000, 17.92639
11.06000, 27.98242
11.07000, 40.60876
11.08000, 46.22583
11.09000, 42.57349
11.10000, 47.61169
11.11000, 65.29065
11.12000, 76.17065
11.13000, 85.84277
11.14000, 103.1174
11.15000, 122.1545
11.16000, 142.9640
11.17000, 168.5867
11.18000, 202.0245
11.19000, 237.7163
11.20000, 272.9896
11.21000, 317.5337
11.22000, 375.0184
11.23000, 430.4039
11.24000, 483.2803
11.25000, 547.3972
11.26000, 609.5944
11.27000, 669.0627
11.28000, 733.0515
11.29000, 799.1610
11.30000, 867.3315
11.31000, 935.0723
11.32000, 1008.054
11.33000, 1082.816
11.34000, 1157.439
11.35000, 1237.062
11.36000, 1312.726
11.37000, 1383.921
11.38000, 1447.376
11.39000, 1510.323
11.40000, 1562.310
11.41000, 1608.237
11.42000, 1648.995
11.43000, 1681.723
11.44000, 1708.962
11.45000, 1722.762
11.46000, 1720.962
11.47000, 1710.103
11.48000, 1683.314
11.49000, 1646.066
11.50000, 1609.029
11.51000, 1555.572
11.52000, 1492.576
11.53000, 1420.320
11.54000, 1357.605
11.55000, 1289.931
11.56000, 1222.956
11.57000, 1150.004
11.58000, 1070.500
11.59000, 991.6682
11.60000, 914.2261
11.61000, 844.3750
11.62000, 773.4640
11.63000, 702.0339
11.64000, 636.8442
11.65000, 574.1652
11.66000, 516.8966
11.67000, 466.0984
11.68000, 412.1505
11.69000, 367.5635
11.70000, 332.8966
11.71000, 300.2806
11.72000, 268.7848
11.73000, 252.1396
11.74000, 244.0049
11.75000, 235.4907
11.76000, 230.0468
11.77000, 233.2534
11.78000, 236.4305
11.79000, 237.8682
11.80000, 244.3762
11.81000, 254.7448
11.82000, 266.9236
11.83000, 280.0332
11.84000, 294.0929
11.85000, 307.2332
11.86000, 319.1936
11.87000, 336.6346
11.88000, 356.1407
11.89000, 373.1494
11.90000, 388.8173
11.91000, 405.3396
11.92000, 431.0046
11.93000, 445.1082
11.94000, 456.4166
11.95000, 467.4321
11.96000, 473.6664
11.97000, 476.3344
11.98000, 480.6954
11.99000, 479.7810
12.00000, 475.6184
12.01000, 465.9023
12.02000, 459.3136
12.03000, 450.7692
12.04000, 435.8643
12.05000, 416.0889
12.06000, 398.6400
12.07000, 378.4988
12.08000, 354.0607
12.09000, 328.9165
12.10000, 304.6418
12.11000, 285.1074
12.12000, 267.3700
12.13000, 248.7178
12.14000, 235.7880
12.15000, 219.8324
12.16000, 205.6212
12.17000, 199.4841
12.18000, 190.7953
12.19000, 176.1722
12.20000, 164.6809
12.21000, 162.0641
12.22000, 163.4833
12.23000, 167.8655
12.24000, 175.3677
12.25000, 183.3104
12.26000, 194.3859
12.27000, 218.8048
12.28000, 246.8978
12.29000, 268.8551
12.30000, 288.1964
12.31000, 311.3022
12.32000, 339.8229
12.33000, 368.7679
12.34000, 401.8766
12.35000, 436.5876
12.36000, 472.7301
12.37000, 511.6639
12.38000, 543.9884
12.39000, 569.4227
12.40000, 602.0068
12.41000, 636.0109
12.42000, 665.8051
12.43000, 688.8191
12.44000, 708.7329
12.45000, 727.4966
12.46000, 747.2502
12.47000, 759.9639
12.48000, 758.7472
12.49000, 752.1508
12.50000, 739.3737
12.51000, 723.9567
12.52000, 709.1594
12.53000, 690.6923
12.54000, 667.1649
12.55000, 638.5872
12.56000, 608.4795
12.57000, 583.7615
12.58000, 550.1735
12.59000, 520.2952
12.60000, 489.5267
12.61000, 453.3281
12.62000, 418.6694
12.63000, 385.2903
12.64000, 353.7910
12.65000, 322.9417
12.66000, 284.0923
12.67000, 241.2523
12.68000, 208.5524
12.69000, 187.1820
12.70000, 166.5817
12.71000, 152.4910
12.72000, 136.3101
12.73000, 123.7690
12.74000, 115.7078
12.75000, 107.5762
12.76000, 98.06445
12.77000, 90.35242
12.78000, 82.61023
12.79000, 69.93762
12.80000, 58.86499
12.81000, 49.50195
12.82000, 41.51855
12.83000, 35.56506
12.84000, 35.79138
12.85000, 37.27734
12.86000, 33.05310
12.87000, 27.41846
12.88000, 27.34375
12.89000, 28.50867
12.90000, 27.08337
12.91000, 28.92761
12.92000, 31.64185
12.93000, 34.73560
12.94000, 37.39929
12.95000, 33.71252
12.96000, 29.69568
12.97000, 31.41833
12.98000, 28.42090
12.99000, 25.09314
13.00000, 28.52527
13.01000, 27.39685
13.02000, 18.20825
13.03000, 11.98938
13.04000, 12.36023
13.05000, 13.13086
13.06000, 14.01123
13.07000, 16.36133
13.08000, 14.70129
13.09000, 16.42151
13.10000, 16.55396
13.11000, 7.709106
13.12000, 6.167725
13.13000, 10.51904
13.14000, 6.043091
13.15000, 8.260498
13.16000, 11.92188
13.17000, 10.75635
13.18000, 16.07300
13.19000, 15.30237
13.20000, 4.183716
13.21000, 4.175781
13.22000, 0.9293210
13.23000, 5.506104
13.24000, 8.232666
13.25000, 9.191406
13.26000, 12.04407
13.27000, 11.89380
13.28000, 8.640503
13.29000, 8.582520
13.30000, 11.12061
13.31000, 8.067017
13.32000, 7.970703
13.33000, 12.61108
13.34000, 16.81079
13.35000, 15.28186
13.36000, 11.42358
13.37000, 8.653931
13.38000, 5.181274
13.39000, 3.854126
13.40000, 6.631592
13.41000, 3.715088
13.42000, 4.536987
13.43000, 11.29797
13.44000, 15.31189
13.45000, 18.73071
13.46000, 23.80273
13.47000, 24.59094
13.48000, 20.07727
13.49000, 22.20715
13.50000, 28.50073
13.51000, 37.56165
13.52000, 50.77527
13.53000, 62.25232
13.54000, 78.14441
13.55000, 98.93384
13.56000, 121.3588
13.57000, 141.4132
13.58000, 162.3485
13.59000, 188.3732
13.60000, 222.0872
13.61000, 263.4309
13.62000, 306.2137
13.63000, 356.1962
13.64000, 415.6681
13.65000, 477.2196
13.66000, 544.1005
13.67000, 614.9908
13.68000, 696.0709
13.69000, 778.6903
13.70000, 863.1895
13.71000, 953.0083
13.72000, 1047.927
13.73000, 1145.754
13.74000, 1237.481
13.75000, 1324.348
13.76000, 1401.705
13.77000, 1483.392
13.78000, 1562.738
13.79000, 1627.683
13.80000, 1688.769
13.81000, 1740.895
13.82000, 1784.190
13.83000, 1819.136
13.84000, 1834.202
13.85000, 1829.957
13.86000, 1820.212
13.87000, 1797.207
13.88000, 1757.152
13.89000, 1708.316
13.90000, 1647.941
13.91000, 1577.745
13.92000, 1514.779
13.93000, 1444.663
13.94000, 1356.897
13.95000, 1264.831
13.96000, 1168.184
13.97000, 1080.098
13.98000, 994.2515
13.99000, 928.0747
14.00000, 855.0383
14.01000, 787.7820
14.02000, 731.1953
14.03000, 676.1190
14.04000, 627.3127
14.05000, 585.4369
14.06000, 545.0811
14.07000, 512.5457
14.08000, 486.8503
14.09000, 468.7157
14.10000, 461.8409
14.11000, 461.6168
14.12000, 461.8030
14.13000, 468.9895
14.14000, 475.2264
14.15000, 479.3939
14.16000, 487.9718
14.17000, 499.0905
14.18000, 514.5194
14.19000, 527.2889
14.20000, 534.7791
14.21000, 542.4897
14.22000, 545.8309
14.23000, 547.0728
14.24000, 553.6954
14.25000, 560.3988
14.26000, 557.1526
14.27000, 551.3073
14.28000, 541.5327
14.29000, 531.1689
14.30000, 522.2162
14.31000, 509.5463
14.32000, 484.9515
14.33000, 457.3210
14.34000, 433.0459
14.35000, 410.3438
14.36000, 390.2762
14.37000, 368.2092
14.38000, 346.9431
14.39000, 322.3979
14.40000, 296.9846
14.41000, 271.1215
14.42000, 249.3378
14.43000, 225.3357
14.44000, 205.6613
14.45000, 190.8157
14.46000, 177.1202
14.47000, 160.8436
14.48000, 136.8108
14.49000, 118.9617
14.50000, 113.2334
14.51000, 100.5671
14.52000, 83.62781
14.53000, 67.71802
14.54000, 55.76611
14.55000, 52.27185
14.56000, 48.50195
14.57000, 41.23840
14.58000, 34.47266
14.59000, 29.76709
14.60000, 23.55933
14.61000, 14.90771
14.62000, 4.955200
14.63000, 2.264771
14.64000, 10.82397
14.65000, 15.25598
14.66000, 17.64282
14.67000, 18.58533
14.68000, 18.00378
14.69000, 19.56824
14.70000, 21.32935
14.71000, 19.42786
14.72000, 15.73267
14.73000, 12.33203
14.74000, 6.764526
14.75000, 4.897461
14.76000, 2.700073
14.77000, 4.197998
14.78000, 11.85852
14.79000, 16.42151
14.80000, 23.60693
14.81000, 38.39490
14.82000, 56.42517
14.83000, 72.77795
14.84000, 90.35339
14.85000, 115.2712
14.86000, 142.1816
14.87000, 177.8546
14.88000, 217.6603
14.89000, 256.0985
14.90000, 294.7692
14.91000, 336.9825
14.92000, 391.8685
14.93000, 449.2772
14.94000, 502.8987
14.95000, 554.2827
14.96000, 607.7296
14.97000, 660.5591
14.98000, 716.5669
14.99000, 772.7150
15.00000, 832.0005
15.01000, 891.8516
15.02000, 938.8181
15.03000, 978.2499
15.04000, 1019.109
15.05000, 1060.651
15.06000, 1092.715
15.07000, 1117.433
15.08000, 1143.343
15.09000, 1150.727
15.10000, 1145.453
15.11000, 1133.122
15.12000, 1106.285
15.13000, 1072.469
15.14000, 1032.707
15.15000, 987.7283
15.16000, 941.7321
15.17000, 887.5992
15.18000, 835.8501
15.19000, 781.3967
15.20000, 713.8920
15.21000, 641.2360
15.22000, 575.8079
15.23000, 521.5081
15.24000, 470.0355
15.25000, 425.2408
15.26000, 374.1438
15.27000, 328.7230
15.28000, 287.6479
15.29000, 245.9877
15.30000, 211.0721
15.31000, 179.2716
15.32000, 153.3658
15.33000, 134.0253
15.34000, 119.5397
15.35000, 106.0590
15.36000, 93.63281
15.37000, 83.73108
15.38000, 74.74414
15.39000, 62.34119
15.40000, 51.86243
15.41000, 44.73828
15.42000, 45.29834
15.43000, 48.41211
15.44000, 45.86047
15.45000, 43.57568
15.46000, 39.75818
15.47000, 39.70764
15.48000, 35.43372
15.49000, 26.84546
15.50000, 21.40161
15.51000, 19.43225
15.52000, 20.81702
15.53000, 21.48608
15.54000, 19.29016
15.55000, 20.29980
15.56000, 21.20435
15.57000, 27.36316
15.58000, 30.52612
15.59000, 31.78259
15.60000, 37.60327
15.61000, 47.97754
15.62000, 55.00598
15.63000, 63.78076
15.64000, 77.73206
15.65000, 97.27014
15.66000, 118.2860
15.67000, 143.2493
15.68000, 162.0891
15.69000, 187.2058
15.70000, 222.5596
15.71000, 261.2198
15.72000, 302.1066
15.73000, 340.5811
15.74000, 387.2446
15.75000, 437.3661
15.76000, 492.8853
15.77000, 547.9309
15.78000, 604.8621
15.79000, 660.7188
15.80000, 713.3715
15.81000, 764.9893
15.82000, 809.6108
15.83000, 858.8223
15.84000, 902.6416
15.85000, 936.5508
15.86000, 959.7368
15.87000, 976.5872
15.88000, 992.5874
15.89000, 995.3364
15.90000, 989.0911
15.91000, 981.2657
15.92000, 961.3303
15.93000, 930.5623
15.94000, 898.1201
15.95000, 862.9050
15.96000, 816.5635
15.97000, 759.4338
15.98000, 705.4474
15.99000, 643.2845
16.00000, 584.5653
16.01000, 523.9994
16.02000, 463.0665
16.03000, 407.9672
16.04000, 354.4611
16.05000, 306.7883
16.06000, 258.7390
16.07000, 209.9828
16.08000, 165.5798
16.09000, 130.9902
16.10000, 104.3337
16.11000, 79.30054
16.12000, 58.94055
16.13000, 39.58350
16.14000, 30.96985
16.15000, 19.00916
16.16000, 6.241333
16.17000, 1.553101
16.18000, 2.324829
16.19000, 3.493774
16.20000, 4.320068
16.21000, 6.674072
16.22000, 2.526123
16.23000, 6.504517
16.24000, 22.04797
16.25000, 33.48438
16.26000, 53.80371
16.27000, 75.23596
16.28000, 98.22119
16.29000, 124.6991
16.30000, 162.3197
16.31000, 202.2031
16.32000, 248.9293
16.33000, 308.3783
16.34000, 380.7899
16.35000, 465.3442
16.36000, 561.0875
16.37000, 668.2826
16.38000, 790.1500
16.39000, 913.5323
16.40000, 1052.532
16.41000, 1194.278
16.42000, 1347.227
16.43000, 1508.922
16.44000, 1681.029
16.45000, 1857.688
16.46000, 2023.673
16.47000, 2199.432
16.48000, 2370.316
16.49000, 2550.628
16.50000, 2718.483
16.51000, 2884.997
16.52000, 3040.538
16.53000, 3173.412
16.54000, 3284.351
16.55000, 3379.377
16.56000, 3460.487
16.57000, 3523.583
16.58000, 3562.007
16.59000, 3565.438
16.60000, 3528.239
16.61000, 3473.808
16.62000, 3398.898
16.63000, 3294.123
16.64000, 3172.061
16.65000, 3033.704
16.66000, 2881.036
16.67000, 2706.896
16.68000, 2534.199
16.69000, 2361.387
16.70000, 2180.277
16.71000, 1998.841
16.72000, 1819.935
16.73000, 1645.334
16.74000, 1476.610
16.75000, 1316.393
16.76000, 1161.943
16.77000, 1015.751
16.78000, 880.3663
16.79000, 756.6243
16.80000, 651.2351
16.81000, 553.1595
16.82000, 476.0695
16.83000, 405.3197
16.84000, 342.0216
16.85000, 288.4515
16.86000, 242.6017
16.87000, 203.3917
16.88000, 168.9116
16.89000, 141.6016
16.90000, 118.5615
16.91000, 99.37097
16.92000, 87.69043
16.93000, 75.91956
16.94000, 63.58813
16.95000, 52.89661
16.96000, 46.26440
16.97000, 39.04199
16.98000, 31.25879
16.99000, 28.40527
17.00000, 27.23108
17.01000, 25.56604
17.02000, 26.16052
17.03000, 26.55505
17.04000, 23.86121
17.05000, 19.51001
17.06000, 15.53210
17.07000, 15.03735
17.08000, 14.75586
17.09000, 13.39819
17.10000, 12.23413
17.11000, 15.38342
17.12000, 21.08533
17.13000, 22.82861
17.14000, 24.38245
17.15000, 25.97620
17.16000, 24.78967
17.17000, 23.89197
17.18000, 23.36292
17.19000, 21.36292
17.20000, 20.24146
17.21000, 19.71875
17.22000, 21.71484
17.23000, 25.37952
17.24000, 31.59277
17.25000, 32.96484
17.26000, 32.45508
17.27000, 31.06409
17.28000, 31.10156
17.29000, 29.32751
17.30000, 32.15173
17.31000, 36.10449
17.32000, 38.68555
17.33000, 42.20496
17.34000, 47.72266
17.35000, 46.05859
17.36000, 41.21277
17.37000, 46.01990
17.38000, 53.04724
17.39000, 55.21826
17.40000, 55.41479
17.41000, 54.44666
17.42000, 52.21411
17.43000, 47.72522
17.44000, 45.17407
17.45000, 43.36121
17.46000, 42.42615
17.47000, 40.52893
17.48000, 35.04980
17.49000, 34.33838
17.50000, 29.77490
17.51000, 26.65906
17.52000, 29.21106
17.53000, 26.25085
17.54000, 15.21838
17.55000, 6.253906
17.56000, 0.9068600
17.57000, 7.122925
17.58000, 16.43933
17.59000, 18.31799
17.60000, 15.72937
17.61000, 14.50122
17.62000, 11.93250
17.63000, 13.72278
17.64000, 13.00354
17.65000, 7.246094
17.66000, 5.427124
17.67000, 2.836060
17.68000, 0.4611820
17.69000, 2.001709
17.70000, 2.048584
17.71000, 1.861450
17.72000, 2.790405
17.73000, 0.8349610
17.74000, 0.5666500
17.75000, 0.9838870
17.76000, 8.0570001E-03
17.77000, 2.557739
17.78000, 1.107544
17.79000, 0.8734130
17.80000, 1.842773
17.81000, 5.147461
17.82000, 0.6236570
17.83000, 7.953003
17.84000, 9.998779
17.85000, 8.135986
17.86000, 6.763672
17.87000, 3.060913
17.88000, 1.513794
17.89000, 2.503174
17.90000, 2.757324
17.91000, 2.886353
17.92000, 7.0435002E-02
17.93000, 2.361938
17.94000, 0.4578860
17.95000, 3.421387
17.96000, 3.609863
17.97000, 7.383423
17.98000, 10.79260
17.99000, 16.39795
18.00000, 18.16968
18.01000, 17.10791
18.02000, 19.60266
18.03000, 24.23364
18.04000, 30.71155
18.05000, 37.07605
18.06000, 37.28723
18.07000, 38.05530
18.08000, 38.55981
18.09000, 40.87109
18.10000, 46.28918
18.11000, 56.35376
18.12000, 63.36511
18.13000, 69.73328
18.14000, 80.28784
18.15000, 89.08899
18.16000, 92.94690
18.17000, 100.7714
18.18000, 112.9724
18.19000, 124.6299
18.20000, 137.4740
18.21000, 150.7947
18.22000, 165.6619
18.23000, 181.0056
18.24000, 198.4861
18.25000, 211.7130
18.26000, 216.9861
18.27000, 224.6659
18.28000, 232.0220
18.29000, 237.6844
18.30000, 244.0333
18.31000, 249.1284
18.32000, 254.9102
18.33000, 258.8079
18.34000, 262.6420
18.35000, 263.5522
18.36000, 262.8789
18.37000, 263.7018
18.38000, 263.5609
18.39000, 261.4661
18.40000, 258.5077
18.41000, 254.7054
18.42000, 251.0295
18.43000, 244.0997
18.44000, 233.1162
18.45000, 225.2087
18.46000, 221.1978
18.47000, 214.9528
18.48000, 209.5242
18.49000, 204.8313
18.50000, 203.8251
18.51000, 203.0149
18.52000, 202.9509
18.53000, 207.1831
18.54000, 213.1512
18.55000, 215.6859
18.56000, 213.9366
18.57000, 211.4835
18.58000, 212.2670
18.59000, 211.1967
18.60000, 214.5028
18.61000, 222.4557
18.62000, 224.4749
18.63000, 225.9303
18.64000, 224.2316
18.65000, 223.6494
18.66000, 225.8333
18.67000, 222.3331
18.68000, 216.7793
18.69000, 211.8617
18.70000, 208.5502
18.71000, 200.4250
18.72000, 186.1870
18.73000, 179.5641
18.74000, 173.1179
18.75000, 162.2107
18.76000, 147.4867
18.77000, 134.3325
18.78000, 125.2664
18.79000, 117.7539
18.80000, 105.2916
18.81000, 93.47632
18.82000, 86.29785
18.83000, 78.21570
18.84000, 67.73169
18.85000, 63.72266
18.86000, 60.36121
18.87000, 53.69226
18.88000, 46.76074
18.89000, 41.34619
18.90000, 37.91577
18.91000, 37.54553
18.92000, 35.04102
18.93000, 32.85901
18.94000, 26.96375
18.95000, 22.81519
18.96000, 20.53979
18.97000, 19.80139
18.98000, 18.13379
18.99000, 19.11682
19.00000, 18.99915
19.01000, 20.02002
19.02000, 23.96985
19.03000, 28.53857
19.04000, 30.56152
19.05000, 34.32715
19.06000, 35.75610
19.07000, 36.40417
19.08000, 35.42725
19.09000, 35.79883
19.10000, 40.96484
19.11000, 45.20996
19.12000, 46.94727
19.13000, 55.63562
19.14000, 67.30518
19.15000, 85.77478
19.16000, 101.3049
19.17000, 114.7948
19.18000, 131.3203
19.19000, 154.1201
19.20000, 171.4937
19.21000, 187.9795
19.22000, 206.7426
19.23000, 221.9915
19.24000, 238.6797
19.25000, 258.0253
19.26000, 276.2281
19.27000, 286.6785
19.28000, 295.4360
19.29000, 305.6510
19.30000, 315.2733
19.31000, 322.3829
19.32000, 330.5101
19.33000, 342.9946
19.34000, 352.4764
19.35000, 360.4658
19.36000, 366.9126
19.37000, 366.1368
19.38000, 360.1685
19.39000, 354.2374
19.40000, 349.3741
19.41000, 343.7581
19.42000, 336.3496
19.43000, 330.2386
19.44000, 322.6753
19.45000, 316.0892
19.46000, 314.0608
19.47000, 317.0500
19.48000, 318.5568
19.49000, 317.6912
19.50000, 318.5831
19.51000, 323.5924
19.52000, 323.2596
19.53000, 320.6045
19.54000, 318.6467
19.55000, 316.5769
19.56000, 315.9443
19.57000, 316.0797
19.58000, 311.3427
19.59000, 307.5435
19.60000, 306.7720
19.61000, 304.9882
19.62000, 300.1921
19.63000, 298.5839
19.64000, 292.7134
19.65000, 287.6204
19.66000, 280.5454
19.67000, 273.4685
19.68000, 267.7791
19.69000, 258.3375
19.70000, 244.0939
19.71000, 231.9680
19.72000, 216.4603
19.73000, 200.7804
19.74000, 189.6084
19.75000, 180.3541
19.76000, 170.3279
19.77000, 157.2596
19.78000, 145.2993
19.79000, 136.1969
19.80000, 127.2229
19.81000, 119.5164
19.82000, 102.8883
19.83000, 88.80798
19.84000, 75.56580
19.85000, 63.40161
19.86000, 55.40564
19.87000, 45.77795
19.88000, 37.57812
19.89000, 30.42676
19.90000, 24.12341
19.91000, 14.64856
19.92000, 9.981934
19.93000, 7.323242
19.94000, 2.742798
19.95000, 0.1899410
19.96000, 1.715210
19.97000, 0.3718260
19.98000, 2.036499
19.99000, 5.859497
20.00000, 7.323608
20.01000, 5.369873
20.02000, 1.707642
20.03000, 6.145142
20.04000, 7.710938
20.05000, 7.038208
20.06000, 5.166382
20.07000, 7.874756
20.08000, 7.172852
20.09000, 4.361328
20.10000, 1.809814
20.11000, 1.751953
20.12000, 5.405396
20.13000, 8.562866
20.14000, 11.96643
20.15000, 11.83582
20.16000, 9.424805
20.17000, 8.045532
20.18000, 5.080688
20.19000, 1.243286
20.20000, 3.546753
20.21000, 2.950195
20.22000, 5.570557
20.23000, 11.89856
20.24000, 19.40979
20.25000, 24.06641
20.26000, 26.66406
20.27000, 30.68274
20.28000, 38.55334
20.29000, 46.75916
20.30000, 52.15930
20.31000, 63.16223
20.32000, 73.80750
20.33000, 80.16626
20.34000, 93.08508
20.35000, 109.5494
20.36000, 125.5436
20.37000, 139.8470
20.38000, 156.5596
20.39000, 175.8912
20.40000, 193.7416
20.41000, 210.1355
20.42000, 224.0040
20.43000, 239.0214
20.44000, 256.4376
20.45000, 269.4127
20.46000, 281.4966
20.47000, 292.5895
20.48000, 306.1711
20.49000, 319.8420
20.50000, 328.7717
20.51000, 333.9403
20.52000, 332.9279
20.53000, 328.2744
20.54000, 321.5299
20.55000, 313.5945
20.56000, 306.1979
20.57000, 300.1907
20.58000, 292.7822
20.59000, 286.4829
20.60000, 270.7325
20.61000, 254.7616
20.62000, 243.1495
20.63000, 235.6967
20.64000, 225.2428
20.65000, 214.6082
20.66000, 204.1227
20.67000, 195.6263
20.68000, 186.1791
20.69000, 172.4412
20.70000, 159.1624
20.71000, 151.0729
20.72000, 137.7327
20.73000, 123.0714
20.74000, 115.0197
20.75000, 111.8271
20.76000, 105.2439
20.77000, 100.8000
20.78000, 101.4253
20.79000, 101.7300
20.80000, 99.69397
20.81000, 93.01733
20.82000, 88.92004
20.83000, 90.74219
20.84000, 90.11365
20.85000, 90.47449
20.86000, 97.06482
20.87000, 92.53442
20.88000, 83.45361
20.89000, 79.44214
20.90000, 79.25024
20.91000, 79.30786
20.92000, 78.52490
20.93000, 79.37134
20.94000, 84.95740
20.95000, 90.92285
20.96000, 93.75806
20.97000, 94.27258
20.98000, 97.80676
20.99000, 104.4304
21.00000, 109.5238
21.01000, 114.3866
21.02000, 113.3892
21.03000, 118.4813
21.04000, 126.3744
21.05000, 136.1394
21.06000, 141.0076
21.07000, 143.4003
21.08000, 144.9084
21.09000, 145.7528
21.10000, 144.6434
21.11000, 145.9482
21.12000, 147.1385
21.13000, 151.6625
21.14000, 154.7124
21.15000, 148.0406
21.16000, 139.4369
21.17000, 137.9196
21.18000, 134.0494
21.19000, 124.8414
21.20000, 118.6531
21.21000, 111.3793
21.22000, 102.3569
21.23000, 94.97229
21.24000, 89.86499
21.25000, 83.02527
21.26000, 75.89685
21.27000, 67.06177
21.28000, 58.68420
21.29000, 58.52161
21.30000, 52.68201
21.31000, 39.99036
21.32000, 34.13098
21.33000, 31.01489
21.34000, 23.69678
21.35000, 19.62903
21.36000, 16.20459
21.37000, 8.609253
21.38000, 1.972900
21.39000, 0.6467290
21.40000, 2.660400
21.41000, 6.723267
21.42000, 15.28271
21.43000, 20.55615
21.44000, 18.38794
21.45000, 14.08875
21.46000, 9.966675
21.47000, 7.639160
21.48000, 6.955200
21.49000, 1.274414
21.50000, 1.006104
21.51000, 1.433105
21.52000, 1.242798
21.53000, 0.2526860
21.54000, 2.587524
21.55000, 5.327881
21.56000, 5.668579
21.57000, 5.749756
21.58000, 6.911011
21.59000, 3.592896
21.60000, 0.7050780
21.61000, 1.727173
21.62000, 2.579468
21.63000, 4.912231
21.64000, 6.775513
21.65000, 6.949097
21.66000, 4.162964
21.67000, 2.707397
21.68000, 5.272339
21.69000, 7.327515
21.70000, 11.27295
21.71000, 8.639038
21.72000, 3.715454
21.73000, 8.592285
21.74000, 11.96973
21.75000, 11.06750
21.76000, 13.12573
21.77000, 13.12439
21.78000, 17.25354
21.79000, 20.30310
21.80000, 18.05322
21.81000, 17.05371
21.82000, 16.21472
21.83000, 16.66626
21.84000, 16.88831
21.85000, 20.04077
21.86000, 19.39392
21.87000, 20.16736
21.88000, 23.94128
21.89000, 24.57581
21.90000, 22.73083
21.91000, 22.75659
21.92000, 25.27258
21.93000, 27.56934
21.94000, 28.89648
21.95000, 27.41431
21.96000, 26.37256
21.97000, 21.39148
21.98000, 18.61072
21.99000, 20.34070
22.00000, 26.57117
22.01000, 33.00244
22.02000, 30.67407
22.03000, 35.68616
22.04000, 41.45911
22.05000, 38.92261
22.06000, 42.63647
22.07000, 49.21118
22.08000, 54.60620
22.09000, 61.50208
22.10000, 69.94849
22.11000, 77.71545
22.12000, 81.64307
22.13000, 92.26135
22.14000, 100.7102
22.15000, 105.0796
22.16000, 113.2997
22.17000, 121.5104
22.18000, 133.2916
22.19000, 151.5837
22.20000, 162.7662
22.21000, 170.2495
22.22000, 179.7950
22.23000, 186.5872
22.24000, 188.8938
22.25000, 191.9756
22.26000, 192.2000
22.27000, 191.7954
22.28000, 191.9015
22.29000, 190.2882
22.30000, 184.9537
22.31000, 177.1748
22.32000, 168.6063
22.33000, 161.7904
22.34000, 153.6727
22.35000, 147.2314
22.36000, 140.0546
22.37000, 138.6674
22.38000, 136.0066
22.39000, 127.2329
22.40000, 114.2660
22.41000, 110.3536
22.42000, 107.4236
22.43000, 101.1034
22.44000, 97.60327
22.45000, 98.30334
22.46000, 97.88330
22.47000, 99.82324
22.48000, 97.90320
22.49000, 98.08337
22.50000, 105.2736
22.51000, 111.8849
22.52000, 122.4683
22.53000, 134.2545
22.54000, 145.9546
22.55000, 158.7181
22.56000, 169.9950
22.57000, 188.3644
22.58000, 210.3857
22.59000, 241.3369
22.60000, 270.6519
22.61000, 299.9375
22.62000, 331.2760
22.63000, 365.7545
22.64000, 398.5901
22.65000, 434.4266
22.66000, 467.6737
22.67000, 495.4186
22.68000, 523.1882
22.69000, 552.3134
22.70000, 587.6857
22.71000, 617.9761
22.72000, 647.6344
22.73000, 671.6727
22.74000, 695.3656
22.75000, 714.0387
22.76000, 722.4218
22.77000, 731.2650
22.78000, 738.6484
22.79000, 748.3120
22.80000, 755.9115
22.81000, 759.7855
22.82000, 766.8896
22.83000, 765.0637
22.84000, 764.3181
22.85000, 769.9728
22.86000, 773.3973
22.87000, 777.2422
22.88000, 783.1373
22.89000, 783.8323
22.90000, 786.6375
22.91000, 792.1829
22.92000, 795.4985
22.93000, 797.9941
22.94000, 808.3600
22.95000, 817.8558
22.96000, 826.8020
22.97000, 834.5282
22.98000, 839.5144
22.99000, 839.1010
23.00000, 838.9174
23.01000, 836.5942
23.02000, 831.4512
23.03000, 824.9680
23.04000, 818.8850
23.05000, 808.2421
23.06000, 790.3596
23.07000, 772.5669
23.08000, 757.7145
23.09000, 733.2021
23.10000, 710.8197
23.11000, 684.6577
23.12000, 660.0956
23.13000, 633.4237
23.14000, 600.6519
23.15000, 570.0004
23.16000, 531.4885
23.17000, 489.9971
23.18000, 451.0155
23.19000, 415.6543
23.20000, 383.1830
23.21000, 346.6617
23.22000, 318.1007
23.23000, 289.5198
23.24000, 255.2490
23.25000, 223.3882
23.26000, 196.0074
23.27000, 170.3969
23.28000, 146.9863
23.29000, 119.2358
23.30000, 99.46545
23.31000, 83.30518
23.32000, 60.15491
23.33000, 43.84497
23.34000, 34.93481
23.35000, 26.63489
23.36000, 21.61487
23.37000, 16.90527
23.38000, 12.48547
23.39000, 10.49585
23.40000, 6.616333
23.41000, 2.686768
23.42000, 0.8729250
23.43000, 6.334717
23.44000, 10.37024
23.45000, 15.34717
23.46000, 18.16345
23.47000, 20.98840
23.48000, 20.92517
23.49000, 17.14697
23.50000, 11.86401
23.51000, 12.05212
23.52000, 14.39734
23.53000, 10.10278
23.54000, 0.1726070
23.55000, 5.395996
23.56000, 10.37256
23.57000, 13.61084
23.58000, 21.14136
23.59000, 31.14551
23.60000, 43.08228
23.61000, 56.93860
23.62000, 70.69983
23.63000, 90.35034
23.64000, 113.2101
23.65000, 135.0194
23.66000, 157.0580
23.67000, 180.4861
23.68000, 204.8035
23.69000, 229.0304
23.70000, 250.0369
23.71000, 277.3724
23.72000, 304.9078
23.73000, 342.1527
23.74000, 371.8669
23.75000, 398.3311
23.76000, 422.9445
23.77000, 444.5273
23.78000, 463.5398
23.79000, 481.7919
23.80000, 500.7242
23.81000, 518.1578
23.82000, 534.1848
23.83000, 542.3669
23.84000, 547.8932
23.85000, 560.1627
23.86000, 565.2346
23.87000, 562.3280
23.88000, 555.8229
23.89000, 551.6677
23.90000, 550.3622
23.91000, 546.3269
23.92000, 536.6117
23.93000, 527.7664
23.94000, 524.1707
23.95000, 527.8649
23.96000, 526.6687
23.97000, 521.3522
23.98000, 514.8857
23.99000, 508.1990
24.00000, 505.2921
24.01000, 495.8450
24.02000, 484.3877
24.03000, 471.0604
24.04000, 458.5426
24.05000, 447.3448
24.06000, 436.8169
24.07000, 425.6385
24.08000, 415.9702
24.09000, 409.6517
24.10000, 402.8131
24.11000, 399.5942
24.12000, 401.2452
24.13000, 395.7762
24.14000, 390.9972
24.15000, 385.5077
24.16000, 376.7284
24.17000, 372.1488
24.18000, 363.2291
24.19000, 353.7295
24.20000, 355.1398
24.21000, 356.2599
24.22000, 351.9999
24.23000, 345.4299
24.24000, 337.4698
24.25000, 333.4598
24.26000, 333.4396
24.27000, 332.7794
24.28000, 321.6694
24.29000, 314.7091
24.30000, 307.4889
24.31000, 297.2188
24.32000, 290.4685
24.33000, 283.7085
24.34000, 278.7983
24.35000, 271.0483
24.36000, 265.0183
24.37000, 261.2083
24.38000, 254.7883
24.39000, 248.5885
24.40000, 242.0687
24.41000, 229.5791
24.42000, 218.2395
24.43000, 203.2900
24.44000, 189.9807
24.45000, 176.4216
24.46000, 162.1125
24.47000, 154.4034
24.48000, 146.3748
24.49000, 135.6661
24.50000, 128.1377
24.51000, 118.9994
24.52000, 108.8815
24.53000, 102.9635
24.54000, 99.91577
24.55000, 92.89844
24.56000, 79.51111
24.57000, 64.44421
24.58000, 54.49731
24.59000, 48.43079
24.60000, 36.58459
24.61000, 27.69678
24.62000, 16.41345
24.63000, 4.436523
24.64000, 1.364868
24.65000, 3.829468
24.66000, 8.806030
24.67000, 10.02563
24.68000, 16.14819
24.69000, 17.36316
24.70000, 13.51770
24.71000, 7.984985
24.72000, 9.386108
24.73000, 15.19604
24.74000, 18.76245
24.75000, 18.84363
24.76000, 20.55579
24.77000, 18.93457
24.78000, 17.65869
24.79000, 11.38733
24.80000, 4.228638
24.81000, 2.110229
24.82000, 10.01233
24.83000, 17.27808
24.84000, 28.70728
24.85000, 48.21863
24.86000, 72.00293
24.87000, 86.44165
24.88000, 100.1052
24.89000, 116.1523
24.90000, 148.1926
24.91000, 175.5566
24.92000, 198.9749
24.93000, 225.3683
24.94000, 251.5881
24.95000, 280.5222
24.96000, 314.0291
24.97000, 347.0691
24.98000, 379.5012
24.99000, 414.3251
25.00000, 450.8708
25.01000, 488.7097
25.02000, 520.7623
25.03000, 553.5881
25.04000, 587.1479
25.05000, 609.7517
25.06000, 622.8495
25.07000, 637.8112
25.08000, 648.9255
25.09000, 651.8516
25.10000, 659.2888
25.11000, 669.5979
25.12000, 677.6183
25.13000, 686.5500
25.14000, 689.6034
25.15000, 685.3680
25.16000, 683.9042
25.17000, 689.7620
25.18000, 693.6710
25.19000, 694.2017
25.20000, 695.1536
25.21000, 687.2469
25.22000, 683.4620
25.23000, 673.9185
25.24000, 665.5164
25.25000, 660.9159
25.26000, 657.2368
25.27000, 654.6094
25.28000, 650.0632
25.29000, 640.1887
25.30000, 637.1958
25.31000, 627.8043
25.32000, 614.9841
25.33000, 602.4458
25.34000, 584.6390
25.35000, 563.5936
25.36000, 536.4098
25.37000, 507.5476
25.38000, 482.2367
25.39000, 467.8976
25.40000, 450.1799
25.41000, 424.7638
25.42000, 405.3392
25.43000, 390.1263
25.44000, 367.7153
25.45000, 347.8057
25.46000, 332.4578
25.47000, 314.0818
25.48000, 300.9374
25.49000, 283.4948
25.50000, 261.7639
25.51000, 238.7151
25.52000, 214.9578
25.53000, 196.0725
25.54000, 183.5890
25.55000, 177.1273
25.56000, 171.2078
25.57000, 162.1799
25.58000, 157.6741
25.59000, 153.5599
25.60000, 148.4779
25.61000, 146.0576
25.62000, 143.0092
25.63000, 145.4928
25.64000, 148.5481
25.65000, 150.7554
25.66000, 157.8745
25.67000, 166.0656
25.68000, 178.5685
25.69000, 185.7832
25.70000, 195.9799
25.71000, 214.3284
25.72000, 228.4187
25.73000, 240.6309
25.74000, 253.0349
25.75000, 259.5808
25.76000, 267.3087
25.77000, 275.8783
25.78000, 282.3699
25.79000, 288.6333
25.80000, 289.5585
25.81000, 291.5454
25.82000, 299.1555
25.83000, 304.5291
25.84000, 305.8220
25.85000, 303.2812
25.86000, 292.0356
25.87000, 282.1273
25.88000, 269.2792
25.89000, 256.2625
25.90000, 249.9844
25.91000, 245.2207
25.92000, 229.8754
25.93000, 214.2700
25.94000, 204.5310
25.95000, 193.6750
25.96000, 181.4441
25.97000, 167.6787
25.98000, 149.7734
25.99000, 143.0787
26.00000, 135.9706
26.01000, 128.0399
26.02000, 124.6198
26.03000, 118.3242
26.04000, 110.2811
26.05000, 101.0101
26.06000, 92.16467
26.07000, 83.29199
26.08000, 76.56995
26.09000, 77.21204
26.10000, 74.02478
26.11000, 64.02039
26.12000, 55.81543
26.13000, 54.37134
26.14000, 59.23962
26.15000, 64.66748
26.16000, 66.80627
26.17000, 70.22168
26.18000, 67.49097
26.19000, 68.44226
26.20000, 71.56909
26.21000, 78.02124
26.22000, 85.25232
26.23000, 92.86743
26.24000, 97.90100
26.25000, 101.4761
26.26000, 106.3972
26.27000, 108.8524
26.28000, 105.7568
26.29000, 106.4388
26.30000, 106.7013
26.31000, 109.9047
26.32000, 107.7592
26.33000, 104.6646
26.34000, 102.0811
26.35000, 103.1284
26.36000, 100.8268
26.37000, 98.98596
26.38000, 92.16626
26.39000, 89.77734
26.40000, 84.07922
26.41000, 83.37195
26.42000, 82.99573
26.43000, 81.40039
26.44000, 77.46570
26.45000, 74.29187
26.46000, 72.13867
26.47000, 76.25659
26.48000, 72.62500
26.49000, 66.29395
26.50000, 64.57385
26.51000, 62.96460
26.52000, 60.96582
26.53000, 58.99780
26.54000, 63.77039
26.55000, 69.65369
26.56000, 75.10742
26.57000, 79.34192
26.58000, 83.01709
26.59000, 87.90295
26.60000, 99.53162
26.61000, 112.8562
26.62000, 124.3271
26.63000, 139.3549
26.64000, 158.9393
26.65000, 179.3597
26.66000, 193.4956
26.67000, 206.2169
26.68000, 219.2740
26.69000, 230.5663
26.70000, 242.9830
26.71000, 254.7843
26.72000, 258.1490
26.73000, 270.4967
26.74000, 278.3969
26.75000, 278.1084
26.76000, 283.4204
26.77000, 283.0325
26.78000, 280.0248
26.79000, 276.5171
26.80000, 269.6899
26.81000, 262.1725
26.82000, 256.8451
26.83000, 247.9980
26.84000, 239.7307
26.85000, 224.6436
26.86000, 217.2665
26.87000, 208.1791
26.88000, 196.7716
26.89000, 185.4442
26.90000, 178.2368
26.91000, 167.5690
26.92000, 157.5410
26.93000, 146.7529
26.94000, 132.6746
26.95000, 122.6260
26.96000, 115.8772
26.97000, 103.7780
26.98000, 91.23853
26.99000, 79.09888
27.00000, 67.96863
27.01000, 60.07812
27.02000, 48.54712
27.03000, 37.18591
27.04000, 28.88586
27.05000, 25.84717
27.06000, 19.48096
27.07000, 9.547485
27.08000, 5.398071
27.09000, 4.702759
27.10000, 5.970337
27.11000, 0.1107180
27.12000, 4.471069
27.13000, 5.061401
27.14000, 4.931763
27.15000, 6.641846
27.16000, 9.322205
27.17000, 8.274780
27.18000, 2.279663
27.19000, 1.435181
27.20000, 4.822998
27.21000, 6.745728
27.22000, 5.234314
27.23000, 0.8182370
27.24000, 3.405334
27.25000, 8.927002
27.26000, 10.57605
27.27000, 4.873535
27.28000, 3.526428
27.29000, 5.474426
27.30000, 6.818359
27.31000, 12.25903
27.32000, 14.21942
27.33000, 7.130554
27.34000, 2.228882
27.35000, 1.811829
27.36000, 1.290710
27.37000, 3.920471
27.38000, 1.957947
27.39000, 1.667175
27.40000, 3.237000
27.41000, 3.752319
27.42000, 5.313354
27.43000, 4.871216
27.44000, 4.965759
27.45000, 4.806946
27.46000, 0.6447140
27.47000, 5.822937
27.48000, 10.33856
27.49000, 17.31226
27.50000, 21.61450
27.51000, 21.69476
27.52000, 29.08331
27.53000, 37.64014
27.54000, 43.29517
27.55000, 55.10834
27.56000, 70.30969
27.57000, 87.36920
27.58000, 103.3870
27.59000, 119.2927
27.60000, 145.0966
27.61000, 169.9187
27.62000, 195.2089
27.63000, 222.2872
27.64000, 246.9936
27.65000, 271.9779
27.66000, 297.4003
27.67000, 325.0008
27.68000, 349.7193
27.69000, 379.6458
27.70000, 412.7703
27.71000, 441.9329
27.72000, 480.1833
27.73000, 518.4817
27.74000, 553.3083
27.75000, 585.6234
27.76000, 617.5476
27.77000, 653.6233
27.78000, 683.9582
27.79000, 708.0843
27.80000, 723.1467
27.81000, 735.3708
27.82000, 749.4429
27.83000, 768.9682
27.84000, 786.3948
27.85000, 796.2540
27.86000, 797.1509
27.87000, 795.5035
27.88000, 796.0170
27.89000, 805.7411
27.90000, 808.7328
27.91000, 806.5694
27.92000, 812.0585
27.93000, 806.6653
27.94000, 791.8898
27.95000, 778.6655
27.96000, 758.5981
27.97000, 744.2276
27.98000, 730.6039
27.99000, 707.5169
28.00000, 685.5370
28.01000, 665.1036
28.02000, 647.0370
28.03000, 625.5174
28.04000, 601.3745
28.05000, 577.3082
28.06000, 547.4890
28.07000, 524.5566
28.08000, 496.2309
28.09000, 469.5520
28.10000, 444.7499
28.11000, 419.4645
28.12000, 391.9159
28.13000, 364.0442
28.14000, 342.6592
28.15000, 325.3009
28.16000, 305.7295
28.17000, 282.7147
28.18000, 262.7468
28.19000, 250.0258
28.20000, 239.6115
28.21000, 222.8239
28.22000, 209.7332
28.23000, 200.8192
28.24000, 179.3320
28.25000, 166.7417
28.26000, 158.8580
28.27000, 149.0310
28.28000, 137.4008
28.29000, 128.4474
28.30000, 119.7305
28.31000, 107.5486
28.32000, 101.4958
28.33000, 106.5650
28.34000, 105.7112
28.35000, 101.5591
28.36000, 99.88770
28.37000, 100.6910
28.38000, 107.0197
28.39000, 109.3702
28.40000, 107.3274
28.41000, 114.6930
28.42000, 126.2928
28.43000, 130.9796
28.44000, 132.0135
28.45000, 138.7905
28.46000, 147.8141
28.47000, 153.1960
28.48000, 166.3928
28.49000, 183.2180
28.50000, 196.7296
28.51000, 213.6606
28.52000, 229.4100
28.53000, 243.0759
28.54000, 249.8812
28.55000, 257.8348
28.56000, 265.0505
28.57000, 267.1718
28.58000, 268.3599
28.59000, 271.0214
28.60000, 269.4466
28.61000, 262.7721
28.62000, 253.4424
28.63000, 246.9634
28.64000, 239.2517
28.65000, 237.2630
28.66000, 237.3993
28.67000, 235.5655
28.68000, 229.4928
28.69000, 225.9888
28.70000, 222.5029
28.71000, 218.2049
28.72000, 207.6150
28.73000, 199.6030
28.74000, 192.3191
28.75000, 183.7532
28.76000, 175.3454
28.77000, 168.8357
28.78000, 159.3840
28.79000, 154.0306
28.80000, 142.2452
28.81000, 130.8479
28.82000, 116.4287
28.83000, 99.39777
28.84000, 88.26501
28.85000, 82.37036
28.86000, 78.90405
28.87000, 73.09595
28.88000, 59.88593
28.89000, 49.85437
28.90000, 41.34106
28.91000, 29.84607
28.92000, 17.74933
28.93000, 9.869690
28.94000, 11.22766
28.95000, 8.818298
28.96000, 7.781067
28.97000, 7.077698
28.98000, 1.938721
28.99000, 14.57343
29.00000, 15.81897
29.01000, 17.66766
29.02000, 18.47833
29.03000, 14.81628
29.04000, 12.76538
29.05000, 13.99567
29.06000, 14.39758
29.07000, 12.98126
29.08000, 10.92578
29.09000, 9.470093
29.10000, 7.813171
29.11000, 5.324097
29.12000, 2.921448
29.13000, 0.5238650
29.14000, 5.380066
29.15000, 10.10303
29.16000, 14.55505
29.17000, 15.37628
29.18000, 16.55670
29.19000, 22.80640
29.20000, 28.55536
29.21000, 33.89368
29.22000, 40.98120
29.23000, 44.20825
29.24000, 54.55457
29.25000, 63.60046
29.26000, 70.15576
29.27000, 77.70044
29.28000, 89.07471
29.29000, 97.83862
29.30000, 106.1320
29.31000, 113.4349
29.32000, 117.4675
29.33000, 118.9597
29.34000, 119.2617
29.35000, 114.8934
29.36000, 113.0950
29.37000, 114.2662
29.38000, 125.4174
29.39000, 129.8782
29.40000, 124.2389
29.41000, 123.6697
29.42000, 123.0602
29.43000, 124.2208
29.44000, 120.2214
29.45000, 110.1720
29.46000, 104.4027
29.47000, 99.75354
29.48000, 96.65442
29.49000, 90.93555
29.50000, 88.95679
29.51000, 95.93860
29.52000, 97.27209
29.53000, 93.39771
29.54000, 86.92529
29.55000, 83.84546
29.56000, 87.01904
29.57000, 85.11548
29.58000, 80.50366
29.59000, 80.54321
29.60000, 78.91516
29.61000, 76.71008
29.62000, 78.66748
29.63000, 77.62659
29.64000, 79.51770
29.65000, 80.12280
29.66000, 84.83191
29.67000, 92.06384
29.68000, 90.34827
29.69000, 95.85596
29.70000, 102.3470
29.71000, 111.5231
29.72000, 121.4144
29.73000, 125.2297
29.74000, 128.8474
29.75000, 135.1677
29.76000, 137.9193
29.77000, 145.8524
29.78000, 154.7870
29.79000, 165.6642
29.80000, 176.7043
29.81000, 181.1277
29.82000, 184.3147
29.83000, 191.2854
29.84000, 190.1797
29.85000, 184.4277
29.86000, 175.5084
29.87000, 166.2803
29.88000, 157.6237
29.89000, 148.1981
29.90000, 135.4041
29.91000, 126.4012
29.92000, 120.1697
29.93000, 114.8297
29.94000, 109.5010
29.95000, 101.6437
29.96000, 90.63782
29.97000, 80.00330
29.98000, 74.83044
29.99000, 73.18909
30.00000, 69.84924
30.01000, 64.09082
30.02000, 59.51416
30.03000, 48.42908
30.04000, 43.44556
30.05000, 39.42358
30.06000, 26.19336
30.07000, 17.43494
30.08000, 12.92822
30.09000, 7.623169
30.10000, 6.909790
30.11000, 4.838257
30.12000, 2.021362
30.13000, 5.519653
30.14000, 8.537231
30.15000, 5.524902
30.16000, 3.795044
30.17000, 5.765015
30.18000, 0.5753170
30.19000, 4.549927
30.20000, 3.417969
30.21000, 0.5726320
30.22000, 0.8200680
30.23000, 3.041504
30.24000, 3.546021
30.25000, 4.757813
30.26000, 3.648438
30.27000, 7.362549
30.28000, 14.45117
30.29000, 21.82727
30.30000, 28.27380
30.31000, 33.68115
30.32000, 43.40417
30.33000, 52.17224
30.34000, 57.77148
30.35000, 61.31604
30.36000, 67.06567
30.37000, 76.77893
30.38000, 83.98523
30.39000, 93.13501
30.40000, 100.8778
30.41000, 104.6140
30.42000, 113.3633
30.43000, 120.5260
30.44000, 125.6018
30.45000, 131.9911
30.46000, 144.7236
30.47000, 154.6093
30.48000, 162.9183
30.49000, 169.0708
30.50000, 174.2965
30.51000, 178.3956
30.52000, 182.2480
30.53000, 185.0537
30.54000, 189.9329
30.55000, 192.1254
30.56000, 194.5913
30.57000, 200.6807
30.58000, 203.1333
30.59000, 205.2594
30.60000, 209.5688
30.61000, 207.1417
30.62000, 205.6080
30.63000, 204.3179
30.64000, 200.5909
30.65000, 201.4678
30.66000, 200.7477
30.67000, 197.9613
30.68000, 190.0482
30.69000, 182.2386
30.70000, 172.9326
30.71000, 161.3999
30.72000, 145.8109
30.73000, 131.1652
30.74000, 122.2329
30.75000, 117.9740
30.76000, 110.5487
30.77000, 102.4568
30.78000, 89.53833
30.79000, 81.31323
30.80000, 75.85156
30.81000, 68.62329
30.82000, 56.87842
30.83000, 50.27686
30.84000, 45.13892
30.85000, 41.30408
30.86000, 39.16272
30.87000, 40.07471
30.88000, 37.63013
30.89000, 32.85876
30.90000, 28.64062
30.91000, 29.59607
30.92000, 34.54443
30.93000, 37.39624
30.94000, 38.47131
30.95000, 41.28967
30.96000, 40.17114
30.97000, 37.13599
30.98000, 35.30408
30.99000, 43.28516
31.00000, 51.54968
31.01000, 60.74719
31.02000, 73.05798
31.03000, 86.07202
31.04000, 95.21924
31.05000, 112.1697
31.06000, 128.0131
31.07000, 141.6599
31.08000, 152.5697
31.09000, 164.3929
31.10000, 169.0292
31.11000, 174.0485
31.12000, 179.3711
31.13000, 187.2468
31.14000, 198.4457
31.15000, 208.0177
31.16000, 210.6727
31.17000, 210.8413
31.18000, 208.6827
31.19000, 205.9673
31.20000, 202.4449
31.21000, 200.4857
31.22000, 200.8795
31.23000, 203.7566
31.24000, 205.7067
31.25000, 203.2698
31.26000, 194.2361
31.27000, 186.8054
31.28000, 183.0881
31.29000, 182.4036
31.30000, 176.2924
31.31000, 170.5042
31.32000, 159.0005
31.33000, 146.5703
31.34000, 137.4691
31.35000, 127.9672
31.36000, 111.4028
31.37000, 97.31189
31.38000, 88.16785
31.39000, 74.23914
31.40000, 60.45032
31.41000, 51.04443
31.42000, 42.69263
31.43000, 32.81177
31.44000, 23.99976
31.45000, 21.67065
31.46000, 19.35681
31.47000, 14.64026
31.48000, 12.54224
31.49000, 12.31323
31.50000, 7.568237
31.51000, 7.670898
31.52000, 12.65735
31.53000, 11.29810
31.54000, 7.596558
31.55000, 6.536133
31.56000, 6.369995
31.57000, 7.047241
31.58000, 13.24622
31.59000, 17.30701
31.60000, 16.28955
31.61000, 18.03369
31.62000, 29.97949
31.63000, 38.06677
31.64000, 45.81592
31.65000, 54.58667
31.66000, 65.87891
31.67000, 76.99280
31.68000, 90.10828
31.69000, 98.12524
31.70000, 107.2837
31.71000, 117.7936
31.72000, 124.5349
31.73000, 131.6079
31.74000, 139.2321
31.75000, 152.7678
31.76000, 161.1749
31.77000, 167.5132
31.78000, 176.3430
31.79000, 185.8041
31.80000, 187.3363
31.81000, 187.6300
31.82000, 190.8550
31.83000, 196.3311
31.84000, 202.5884
31.85000, 203.7469
31.86000, 201.8767
31.87000, 202.6874
31.88000, 204.3195
31.89000, 206.0424
31.90000, 208.6465
31.91000, 212.1117
31.92000, 212.7578
31.93000, 207.3351
31.94000, 204.2432
31.95000, 206.2525
31.96000, 213.3625
31.97000, 216.5334
31.98000, 222.0554
31.99000, 228.1782
32.00000, 229.2818
32.01000, 236.5963
32.02000, 247.9714
32.03000, 257.7375
32.04000, 267.2042
32.05000, 273.4219
32.06000, 281.5402
32.07000, 294.6189
32.08000, 306.6385
32.09000, 316.3687
32.10000, 327.5596
32.11000, 334.4210
32.12000, 343.7031
32.13000, 348.9156
32.14000, 353.2387
32.15000, 359.3423
32.16000, 362.2966
32.17000, 355.0715
32.18000, 347.8169
32.19000, 343.4731
32.20000, 340.2902
32.21000, 331.5993
32.22000, 325.6912
32.23000, 319.8761
32.24000, 312.8842
32.25000, 303.9741
32.26000, 292.8649
32.27000, 280.1066
32.28000, 267.1685
32.29000, 251.0505
32.30000, 240.2130
32.31000, 234.8655
32.32000, 222.6884
32.33000, 215.0113
32.34000, 207.5743
32.35000, 198.0374
32.36000, 187.4606
32.37000, 182.5440
32.38000, 178.4376
32.39000, 168.6211
32.40000, 160.5246
32.41000, 152.9487
32.42000, 137.3131
32.43000, 124.1395
32.44000, 110.5692
32.45000, 99.19128
32.46000, 88.01508
32.47000, 79.68024
32.48000, 68.44635
32.49000, 53.50323
32.50000, 41.37012
32.51000, 32.76727
32.52000, 22.96442
32.53000, 14.19196
32.54000, 12.18018
32.55000, 6.078613
32.56000, 1.278931
32.57000, 6.389832
32.58000, 11.17523
32.59000, 16.32190
32.60000, 17.87268
32.61000, 18.13647
32.62000, 17.11359
32.63000, 15.59448
32.64000, 12.22955
32.65000, 12.57202
32.66000, 15.34833
32.67000, 15.92896
32.68000, 14.45917
32.69000, 8.618347
32.70000, 6.838745
32.71000, 6.285034
32.72000, 4.476318
32.73000, 3.070618
32.74000, 2.196167
32.75000, 4.215332
32.76000, 13.70795
32.77000, 16.77747
32.78000, 19.66577
32.79000, 23.86304
32.80000, 26.52917
32.81000, 30.45410
32.82000, 33.21790
32.83000, 36.44061
32.84000, 39.55200
32.85000, 43.49225
32.86000, 46.91125
32.87000, 48.23907
32.88000, 54.71558
32.89000, 60.32086
32.90000, 64.68475
32.91000, 68.08740
32.92000, 70.42883
32.93000, 71.94885
32.94000, 75.99750
32.95000, 79.35492
32.96000, 77.08081
32.97000, 76.07538
32.98000, 77.34857
32.99000, 75.73047
33.00000, 74.70087
33.01000, 71.41968
33.02000, 68.31714
33.03000, 64.39325
33.04000, 65.41779
33.05000, 67.80084
33.06000, 67.28235
33.07000, 60.08246
33.08000, 55.23096
33.09000, 51.54791
33.10000, 46.62347
33.11000, 40.62726
33.12000, 39.54962
33.13000, 38.33038
33.14000, 30.81952
33.15000, 25.58704
33.16000, 25.24298
33.17000, 24.25720
33.18000, 23.25989
33.19000, 22.68988
33.20000, 22.10822
33.21000, 22.17883
33.22000, 22.12878
33.23000, 23.76904
33.24000, 28.70062
33.25000, 37.77155
33.26000, 41.10052
33.27000, 40.74799
33.28000, 46.86353
33.29000, 57.68738
33.30000, 66.47949
33.31000, 71.59985
33.32000, 75.46832
33.33000, 79.59509
33.34000, 85.18884
33.35000, 88.30463
33.36000, 91.36188
33.37000, 97.99963
33.38000, 101.1390
33.39000, 106.7784
33.40000, 111.4890
33.41000, 112.5802
33.42000, 113.6695
33.43000, 112.0648
33.44000, 111.6890
33.45000, 109.8993
33.46000, 109.3836
33.47000, 111.3106
33.48000, 111.3503
33.49000, 110.7010
33.50000, 112.3929
33.51000, 109.5078
33.52000, 105.3575
33.53000, 102.5381
33.54000, 95.62988
33.55000, 95.24292
33.56000, 97.04645
33.57000, 98.17053
33.58000, 96.00439
33.59000, 91.93695
33.60000, 88.24481
33.61000, 83.40863
33.62000, 78.40948
33.63000, 79.19452
33.64000, 76.26904
33.65000, 78.08087
33.66000, 80.04535
33.67000, 78.30579
33.68000, 78.16162
33.69000, 78.39825
33.70000, 73.60583
33.71000, 71.22217
33.72000, 66.08490
33.73000, 59.68494
33.74000, 57.70264
33.75000, 56.23767
33.76000, 55.69092
33.77000, 47.54260
33.78000, 39.93323
33.79000, 35.41339
33.80000, 30.44012
33.81000, 29.96570
33.82000, 28.02631
33.83000, 25.13934
33.84000, 29.76910
33.85000, 29.44824
33.86000, 25.59637
33.87000, 28.31152
33.88000, 33.39886
33.89000, 31.71613
33.90000, 35.17853
33.91000, 35.28955
33.92000, 38.52802
33.93000, 44.50885
33.94000, 47.48895
33.95000, 49.03510
33.96000, 52.98792
33.97000, 57.79919
33.98000, 64.17883
33.99000, 68.45703
34.00000, 68.51355
34.01000, 69.93860
34.02000, 76.14191
34.03000, 79.78369
34.04000, 83.74414
34.05000, 89.00275
34.06000, 90.70984
34.07000, 92.85541
34.08000, 98.82947
34.09000, 102.1719
34.10000, 100.0628
34.11000, 105.0320
34.12000, 110.7496
34.13000, 108.4460
34.14000, 108.4405
34.15000, 110.0536
34.16000, 107.7251
34.17000, 103.1151
34.18000, 99.29333
34.19000, 93.83020
34.20000, 87.19550
34.21000, 81.40924
34.22000, 78.32141
34.23000, 76.43213
34.24000, 72.69110
34.25000, 67.71881
34.26000, 61.57471
34.27000, 56.63928
34.28000, 54.18237
34.29000, 50.62372
34.30000, 46.38361
34.31000, 45.69208
34.32000, 47.07898
34.33000, 47.99432
34.34000, 42.62823
34.35000, 38.77063
34.36000, 36.07147
34.37000, 35.90094
34.38000, 33.00879
34.39000, 32.77521
34.40000, 33.60016
34.41000, 30.07355
34.42000, 23.43250
34.43000, 14.42603
34.44000, 14.19513
34.45000, 13.82770
34.46000, 16.23181
34.47000, 18.94659
34.48000, 22.19586
34.49000, 21.68268
34.50000, 20.85107
34.51000, 14.62506
34.52000, 12.88971
34.53000, 5.743958
34.54000, 3.470642
34.55000, 3.909668
34.56000, 4.447937
34.57000, 2.293640
34.58000, 0.5794070
34.59000, 3.336304
34.60000, 6.233398
34.61000, 7.664612
34.62000, 7.809021
34.63000, 3.241333
34.64000, 0.5979000
34.65000, 0.4454960
34.66000, 4.474609
34.67000, 8.766174
34.68000, 6.378967
34.69000, 3.873474
34.70000, 6.528931
34.71000, 12.61432
34.72000, 17.64032
34.73000, 18.58270
34.74000, 15.00018
34.75000, 12.28015
34.76000, 14.36151
34.77000, 13.97662
34.78000, 9.724426
34.79000, 6.096130
34.80000, 3.306702
34.81000, 1.837402
34.82000, 7.084778
34.83000, 4.773254
34.84000, 1.314331
34.85000, 0.6513060
34.86000, 0.4352420
34.87000, 2.108826
34.88000, 4.808411
34.89000, 4.570923
34.90000, 6.316162
34.91000, 13.39081
34.92000, 20.35797
34.93000, 20.24878
34.94000, 22.31525
34.95000, 25.63037
34.96000, 26.84534
34.97000, 25.49164
34.98000, 22.73657
34.99000, 29.30841
35.00000, 37.57776
35.01000, 42.22369
35.02000, 45.19397
35.03000, 49.61816
35.04000, 55.45551
35.05000, 59.15607
35.06000, 66.41083
35.07000, 71.76959
35.08000, 78.03241
35.09000, 78.02753
35.10000, 78.66449
35.11000, 84.84338
35.12000, 83.05359
35.13000, 79.28479
35.14000, 76.00684
35.15000, 75.03827
35.16000, 77.17841
35.17000, 79.01758
35.18000, 83.00580
35.19000, 83.07281
35.20000, 78.82886
35.21000, 77.81378
35.22000, 75.32770
35.23000, 76.58069
35.24000, 77.08252
35.25000, 73.50342
35.26000, 75.56342
35.27000, 77.23248
35.28000, 74.43054
35.29000, 71.50757
35.30000, 72.02368
35.31000, 75.16895
35.32000, 72.80322
35.33000, 65.06665
35.34000, 63.47919
35.35000, 62.91089
35.36000, 57.27161
35.37000, 57.39160
35.38000, 54.27069
35.39000, 49.69885
35.40000, 44.88635
35.41000, 37.56293
35.42000, 32.69885
35.43000, 36.26392
35.44000, 36.04822
35.45000, 36.40186
35.46000, 39.06476
35.47000, 38.71692
35.48000, 38.27838
35.49000, 41.99921
35.50000, 42.28937
35.51000, 41.28882
35.52000, 42.14764
35.53000, 40.74591
35.54000, 38.55353
35.55000, 39.44067
35.56000, 36.15710
35.57000, 35.77307
35.58000, 37.27863
35.59000, 36.97357
35.60000, 33.08807
35.61000, 32.28217
35.62000, 32.92590
35.63000, 33.14923
35.64000, 33.97217
35.65000, 38.41479
35.66000, 38.68713
35.67000, 33.20917
35.68000, 30.72089
35.69000, 26.11444
35.70000, 25.09167
35.71000, 18.15875
35.72000, 13.65057
35.73000, 13.19336
35.74000, 18.78613
35.75000, 17.95752
35.76000, 9.706177
35.77000, 7.273315
35.78000, 0.9736330
35.79000, 5.360535
35.80000, 0.6157230
35.81000, 0.1342160
35.82000, 0.5361330
35.83000, 0.3863530
35.84000, 5.308777
35.85000, 8.087097
35.86000, 3.954712
35.87000, 2.414307
35.88000, 7.316711
35.89000, 13.76611
35.90000, 12.10773
35.91000, 11.32135
35.92000, 14.00940
35.93000, 13.23993
35.94000, 11.69775
35.95000, 11.35394
35.96000, 9.074219
35.97000, 6.382385
35.98000, 1.671204
35.99000, 9.5702998E-02
36.00000, 2.488892
36.01000, 4.312683
36.02000, 9.984436
36.03000, 16.26477
36.04000, 17.81915
36.05000, 17.33289
36.06000, 24.88104
36.07000, 29.86584
36.08000, 35.66809
36.09000, 40.24792
36.10000, 45.89673
36.11000, 50.42773
36.12000, 57.17950
36.13000, 59.40198
36.14000, 69.24536
36.15000, 76.90936
36.16000, 84.21423
36.17000, 94.52991
36.18000, 108.3265
36.19000, 123.6340
36.20000, 138.5121
36.21000, 151.0209
36.22000, 159.0906
36.23000, 166.5610
36.24000, 174.3223
36.25000, 182.5042
36.26000, 191.6968
36.27000, 203.1302
36.28000, 205.2044
36.29000, 202.3292
36.30000, 202.6449
36.31000, 209.5312
36.32000, 215.5883
36.33000, 220.6359
36.34000, 217.7344
36.35000, 215.6537
36.36000, 213.4938
36.37000, 208.4945
36.38000, 209.8960
36.39000, 210.6484
36.40000, 204.1515
36.41000, 199.1055
36.42000, 194.3403
36.43000, 182.6759
36.44000, 178.1826
36.45000, 176.8799
36.46000, 175.6782
36.47000, 169.9174
36.48000, 163.4775
36.49000, 163.8986
36.50000, 165.2006
36.51000, 164.9636
36.52000, 164.7074
36.53000, 164.8623
36.54000, 169.0981
36.55000, 168.0750
36.56000, 162.7929
36.57000, 164.4019
36.58000, 167.1224
36.59000, 162.4540
36.60000, 155.2667
36.61000, 145.6812
36.62000, 138.8382
36.63000, 136.1678
36.64000, 133.5997
36.65000, 129.8332
36.66000, 125.8478
36.67000, 121.9836
36.68000, 115.9105
36.69000, 104.7985
36.70000, 95.84772
36.71000, 95.11951
36.72000, 89.11340
36.73000, 82.05896
36.74000, 71.79822
36.75000, 63.18225
36.76000, 52.18945
36.77000, 51.72003
36.78000, 55.61401
36.79000, 50.48206
36.80000, 49.53564
36.81000, 49.31390
36.82000, 53.39587
36.83000, 50.32129
36.84000, 40.64105
36.85000, 43.21429
36.86000, 45.01965
36.87000, 41.52765
36.88000, 37.42883
36.89000, 37.54169
36.90000, 42.35590
36.91000, 47.14154
36.92000, 50.67841
36.93000, 54.87683
36.94000, 54.13678
36.95000, 51.40814
36.96000, 53.92108
36.97000, 57.71552
36.98000, 63.96204
36.99000, 68.31635
37.00000, 69.63446
37.01000, 73.23303
37.02000, 77.09467
37.03000, 83.60846
37.04000, 87.62524
37.05000, 93.04401
37.06000, 94.93439
37.07000, 93.25775
37.08000, 101.8772
37.09000, 108.1570
37.10000, 110.6458
37.11000, 114.9794
37.12000, 116.2197
37.13000, 120.0142
37.14000, 124.1913
37.15000, 117.8065
37.16000, 118.1209
37.17000, 121.2510
37.18000, 126.0993
37.19000, 126.6449
37.20000, 117.8498
37.21000, 115.4783
37.22000, 120.4219
37.23000, 121.5201
37.24000, 122.3417
37.25000, 122.7267
37.26000, 123.2448
37.27000, 128.9554
37.28000, 130.3882
37.29000, 129.0233
37.30000, 127.9803
37.31000, 125.6892
37.32000, 117.9799
37.33000, 106.0125
37.34000, 91.76672
37.35000, 88.00293
37.36000, 92.34094
37.37000, 80.93079
37.38000, 71.85242
37.39000, 65.44580
37.40000, 60.93109
37.41000, 61.42816
37.42000, 57.54706
37.43000, 47.69763
37.44000, 45.17023
37.45000, 46.33447
37.46000, 47.98059
37.47000, 41.68854
37.48000, 32.67834
37.49000, 27.75989
37.50000, 23.74316
37.51000, 22.42834
37.52000, 20.38531
37.53000, 16.41406
37.54000, 18.77460
37.55000, 20.61694
37.56000, 17.51105
37.57000, 12.22693
37.58000, 15.76465
37.59000, 16.85413
37.60000, 14.67535
37.61000, 8.300354
37.62000, 5.366150
37.63000, 7.758606
37.64000, 12.30786
37.65000, 10.25397
37.66000, 7.050720
37.67000, 7.553223
37.68000, 15.41852
37.69000, 11.52765
37.70000, 10.22449
37.71000, 13.53510
37.72000, 15.72748
37.73000, 20.07159
37.74000, 26.28766
37.75000, 29.32538
37.76000, 35.18494
37.77000, 44.97675
37.78000, 45.93970
37.79000, 37.40454
37.80000, 36.38617
37.81000, 39.89502
37.82000, 45.01947
37.83000, 48.30804
37.84000, 55.40369
37.85000, 59.25867
37.86000, 58.75513
37.87000, 59.53326
37.88000, 62.41309
37.89000, 66.14447
37.90000, 72.08258
37.91000, 70.99615
37.92000, 65.76660
37.93000, 65.99243
37.94000, 67.97723
37.95000, 66.01416
37.96000, 64.42804
37.97000, 63.41412
37.98000, 56.11261
37.99000, 48.66266
38.00000, 52.90845
38.01000, 61.43323
38.02000, 57.90039
38.03000, 56.64069
38.04000, 53.61731
38.05000, 54.70844
38.06000, 60.80646
38.07000, 63.03064
38.08000, 64.72400
38.09000, 65.90009
38.10000, 59.11713
38.11000, 60.48602
38.12000, 65.23480
38.13000, 62.83441
38.14000, 58.03491
38.15000, 58.61621
38.16000, 54.40833
38.17000, 54.19128
38.18000, 52.57507
38.19000, 51.43127
38.20000, 46.08850
38.21000, 46.89661
38.22000, 44.43549
38.23000, 44.67511
38.24000, 43.97540
38.25000, 42.57642
38.26000, 42.05798
38.27000, 39.19080
38.28000, 36.73596
38.29000, 34.20520
38.30000, 30.85205
38.31000, 34.49622
38.32000, 39.67450
38.33000, 34.89258
38.34000, 35.08795
38.35000, 34.00470
38.36000, 29.45697
38.37000, 24.61517
38.38000, 22.12213
38.39000, 20.80078
38.40000, 24.07477
38.41000, 30.70831
38.42000, 37.67120
38.43000, 39.08850
38.44000, 41.84723
38.45000, 49.09619
38.46000, 53.94562
38.47000, 55.35535
38.48000, 50.64532
38.49000, 51.25555
38.50000, 51.70612
38.51000, 52.87701
38.52000, 55.71796
38.53000, 50.34930
38.54000, 46.42078
38.55000, 51.19244
38.56000, 46.25433
38.57000, 43.16638
38.58000, 45.74860
38.59000, 47.09094
38.60000, 45.31342
38.61000, 45.77710
38.62000, 44.95264
38.63000, 41.60193
38.64000, 45.54730
38.65000, 45.90479
38.66000, 53.06232
38.67000, 57.57990
38.68000, 54.63751
38.69000, 51.06512
38.70000, 54.22308
38.71000, 55.03198
38.72000, 57.26080
38.73000, 61.35956
38.74000, 59.44818
38.75000, 53.97675
38.76000, 51.16528
38.77000, 50.02368
38.78000, 53.15192
38.79000, 50.39996
38.80000, 49.38794
38.81000, 44.34875
38.82000, 41.45740
38.83000, 30.50714
38.84000, 17.10046
38.85000, 9.616882
38.86000, 7.531799
38.87000, 4.300476
38.88000, 7.141968
38.89000, 7.940918
38.90000, 8.569092
38.91000, 6.235718
38.92000, 7.123779
38.93000, 7.605103
38.94000, 5.305908
38.95000, 1.556213
38.96000, 1.120789
38.97000, 3.869629
38.98000, 2.149597
38.99000, 2.044800
39.00000, 3.478394
39.01000, 4.729980
39.02000, 2.613342
39.03000, 6.7443997E-02
39.04000, 3.696167
39.05000, 7.730286
39.06000, 6.399719
39.07000, 5.371704
39.08000, 3.665100
39.09000, 3.446167
39.10000, 1.035828
39.11000, 0.5621950
39.12000, 7.398376
39.13000, 10.46960
39.14000, 5.468323
39.15000, 5.167786
39.16000, 5.909058
39.17000, 7.612427
39.18000, 13.92688
39.19000, 9.797791
39.20000, 6.359070
39.21000, 5.848938
39.22000, 8.378113
39.23000, 4.908081
39.24000, 0.2988280
39.25000, 1.620117
39.26000, 4.209656
39.27000, 1.888123
39.28000, 9.475403
39.29000, 10.16876
39.30000, 5.330383
39.31000, 10.47009
39.32000, 18.52814
39.33000, 17.87512
39.34000, 17.35651
39.35000, 16.56592
39.36000, 14.10944
39.37000, 13.02716
39.38000, 13.16992
39.39000, 8.971863
39.40000, 12.66980
39.41000, 17.28992
39.42000, 21.88110
39.43000, 26.16937
39.44000, 25.42072
39.45000, 22.98706
39.46000, 24.09155
39.47000, 27.93896
39.48000, 31.87457
39.49000, 37.23120
39.50000, 39.39478
39.51000, 46.22937
39.52000, 49.29688
39.53000, 48.73633
39.54000, 52.09863
39.55000, 63.54382
39.56000, 66.36493
39.57000, 65.77289
39.58000, 66.61572
39.59000, 65.44550
39.60000, 71.51202
39.61000, 77.14343
39.62000, 80.06372
39.63000, 84.48279
39.64000, 90.55066
39.65000, 97.65759
39.66000, 106.4032
39.67000, 116.6376
39.68000, 120.7308
39.69000, 122.2330
39.70000, 123.0338
39.71000, 119.5835
39.72000, 115.2120
39.73000, 109.7905
39.74000, 105.7966
39.75000, 108.4013
39.76000, 102.6550
39.77000, 102.0775
39.78000, 103.1586
39.79000, 99.44867
39.80000, 96.88416
39.81000, 94.39209
39.82000, 94.56610
39.83000, 99.62500
39.84000, 94.96869
39.85000, 90.35120
39.86000, 90.25232
39.87000, 94.70221
39.88000, 92.71069
39.89000, 88.01624
39.90000, 90.91644
39.91000, 93.21106
39.92000, 95.93439
39.93000, 94.75623
39.94000, 90.69690
39.95000, 92.29620
39.96000, 84.83417
39.97000, 83.92090
39.98000, 79.84625
39.99000, 68.96729
40.00000, 65.84796
40.01000, 65.05133
40.02000, 63.43994
40.03000, 68.49506
40.04000, 70.97565
40.05000, 66.15381
40.06000, 61.00177
40.07000, 59.51385
40.08000, 57.87457
40.09000, 57.44800
40.10000, 58.92175
40.11000, 64.83667
40.12000, 70.35382
40.13000, 71.37518
40.14000, 71.70001
40.15000, 78.36615
40.16000, 82.28027
40.17000, 91.19830
40.18000, 94.89484
40.19000, 97.00464
40.20000, 97.42749
40.21000, 94.99487
40.22000, 97.56824
40.23000, 99.24475
40.24000, 98.49213
40.25000, 100.1281
40.26000, 103.9226
40.27000, 107.4957
40.28000, 114.4972
40.29000, 117.4820
40.30000, 114.7617
40.31000, 115.2748
40.32000, 114.0524
40.33000, 106.2513
40.34000, 103.9982
40.35000, 98.85809
40.36000, 87.20605
40.37000, 84.38171
40.38000, 87.89587
40.39000, 84.92438
40.40000, 76.95416
40.41000, 69.96655
40.42000, 61.12799
40.43000, 53.24512
40.44000, 48.61176
40.45000, 46.10260
40.46000, 43.76733
40.47000, 42.31921
40.48000, 44.31714
40.49000, 49.66327
40.50000, 49.42773
40.51000, 56.44226
40.52000, 62.53705
40.53000, 74.96802
40.54000, 86.62225
40.55000, 90.32562
40.56000, 93.40833
40.57000, 98.34027
40.58000, 93.17133
40.59000, 87.58179
40.60000, 87.68146
40.61000, 95.26038
40.62000, 93.43866
40.63000, 94.29620
40.64000, 96.96289
40.65000, 96.36902
40.66000, 93.74438
40.67000, 88.40918
40.68000, 84.22321
40.69000, 87.44653
40.70000, 84.21924
40.71000, 75.44135
40.72000, 73.21271
40.73000, 69.08441
40.74000, 63.09851
40.75000, 59.75006
40.76000, 55.87793
40.77000, 53.50220
40.78000, 56.18091
40.79000, 53.60907
40.80000, 46.43457
40.81000, 49.49945
40.82000, 45.72693
40.83000, 42.07574
40.84000, 43.02002
40.85000, 39.14081
40.86000, 31.18109
40.87000, 25.73676
40.88000, 19.77100
40.89000, 17.55670
40.90000, 9.144897
40.91000, 4.104675
40.92000, 2.566956
40.93000, 9.189819
40.94000, 11.22516
40.95000, 9.068115
40.96000, 7.745728
40.97000, 6.751892
40.98000, 2.679626
40.99000, 2.711914
41.00000, 5.041077
41.01000, 5.041931
41.02000, 1.333496
41.03000, 6.967468
41.04000, 3.698303
41.05000, 6.005798
41.06000, 5.701233
41.07000, 1.894287
41.08000, 0.4917600
41.09000, 2.164917
41.10000, 3.911133
41.11000, 3.873047
41.12000, 3.524780
41.13000, 7.378418
41.14000, 12.03394
41.15000, 23.55334
41.16000, 27.27966
41.17000, 26.17688
41.18000, 18.02417
41.19000, 11.44031
41.20000, 5.809448
41.21000, 1.149353
41.22000, 1.875183
41.23000, 0.7741090
41.24000, 2.952759
41.25000, 7.038025
41.26000, 11.53021
41.27000, 10.31049
41.28000, 13.25616
41.29000, 10.44971
41.30000, 7.114685
41.31000, 5.984314
41.32000, 2.985901
41.33000, 8.729065
41.34000, 15.96027
41.35000, 16.38556
41.36000, 17.22571
41.37000, 15.95392
41.38000, 15.90942
41.39000, 20.10510
41.40000, 24.48340
41.41000, 24.67151
41.42000, 22.57391
41.43000, 24.36115
41.44000, 24.45258
41.45000, 22.77338
41.46000, 23.83154
41.47000, 32.52905
41.48000, 31.56293
41.49000, 21.20764
41.50000, 16.54260
41.51000, 25.04346
41.52000, 32.83624
41.53000, 34.93884
41.54000, 31.64600
41.55000, 28.58160
41.56000, 34.62793
41.57000, 36.60638
41.58000, 36.03577
41.59000, 37.72491
41.60000, 40.04401
41.61000, 43.98090
41.62000, 41.84735
41.63000, 34.18341
41.64000, 37.44781
41.65000, 48.68408
41.66000, 61.66180
41.67000, 70.90753
41.68000, 71.91888
41.69000, 73.48083
41.70000, 82.50330
41.71000, 84.14642
41.72000, 81.15009
41.73000, 82.84454
41.74000, 80.73950
41.75000, 79.94507
41.76000, 78.25134
41.77000, 71.92834
41.78000, 66.01196
41.79000, 61.43219
41.80000, 47.02020
41.81000, 39.73987
41.82000, 38.15625
41.83000, 39.89435
41.84000, 36.88110
41.85000, 27.44165
41.86000, 16.90088
41.87000, 17.31390
41.88000, 22.26459
41.89000, 25.02008
41.90000, 19.22333
41.91000, 17.46228
41.92000, 17.73206
41.93000, 19.99060
41.94000, 23.83490
41.95000, 30.65503
41.96000, 38.33502
41.97000, 42.01666
41.98000, 42.24127
41.99000, 43.67767
42.00000, 41.01691
42.01000, 39.25690
42.02000, 39.28674
42.03000, 39.67847
42.04000, 40.96503
42.05000, 40.77740
42.06000, 44.91675
42.07000, 44.83197
42.08000, 37.39795
42.09000, 35.35693
42.10000, 36.71277
42.11000, 36.78638
42.12000, 41.54559
42.13000, 44.85144
42.14000, 48.57684
42.15000, 48.30646
42.16000, 44.10895
42.17000, 44.62756
42.18000, 44.70264
42.19000, 41.61823
42.20000, 41.45667
42.21000, 34.69928
42.22000, 30.87189
42.23000, 32.80371
42.24000, 31.12488
42.25000, 34.94720
42.26000, 38.75146
42.27000, 42.07056
42.28000, 39.10651
42.29000, 37.57452
42.30000, 37.10785
42.31000, 34.46716
42.32000, 34.35956
42.33000, 37.22913
42.34000, 36.81958
42.35000, 27.76733
42.36000, 23.51385
42.37000, 30.34070
42.38000, 31.36761
42.39000, 24.43762
42.40000, 28.39014
42.41000, 28.69678
42.42000, 35.61682
42.43000, 45.22308
42.44000, 46.79065
42.45000, 47.28821
42.46000, 46.04938
42.47000, 42.71393
42.48000, 42.76843
42.49000, 39.95331
42.50000, 42.54498
42.51000, 43.89319
42.52000, 40.31689
42.53000, 33.23309
42.54000, 26.30865
42.55000, 25.80060
42.56000, 30.28998
42.57000, 27.42462
42.58000, 22.12286
42.59000, 17.14490
42.60000, 17.68396
42.61000, 15.89795
42.62000, 10.40570
42.63000, 9.066956
42.64000, 3.432861
42.65000, 1.477661
42.66000, 4.637939
42.67000, 1.285034
42.68000, 2.236450
42.69000, 6.813232
42.70000, 13.47333
42.71000, 11.69269
42.72000, 4.152344
42.73000, 2.971191
42.74000, 3.160339
42.75000, 6.505737
42.76000, 4.828430
42.77000, 1.515259
42.78000, 13.68323
42.79000, 18.11145
42.80000, 13.42279
42.81000, 6.588440
42.82000, 12.46643
42.83000, 17.42145
42.84000, 15.66357
42.85000, 22.23688
42.86000, 22.98114
42.87000, 20.97754
42.88000, 24.29999
42.89000, 26.97644
42.90000, 27.81494
42.91000, 24.07745
42.92000, 20.10901
42.93000, 19.46960
42.94000, 21.48218
42.95000, 30.98969
42.96000, 34.97137
42.97000, 40.65790
42.98000, 44.59045
42.99000, 45.56903
43.00000, 50.45850
43.01000, 50.08795
43.02000, 47.66541
43.03000, 49.32178
43.04000, 47.46411
43.05000, 50.53937
43.06000, 51.26251
43.07000, 53.48364
43.08000, 59.45367
43.09000, 70.24762
43.10000, 72.96136
43.11000, 72.60016
43.12000, 67.50079
43.13000, 68.22321
43.14000, 69.52148
43.15000, 72.49371
43.16000, 74.18970
43.17000, 80.39258
43.18000, 84.25934
43.19000, 86.97681
43.20000, 90.50513
43.21000, 94.09430
43.22000, 90.28430
43.23000, 94.10516
43.24000, 97.83667
43.25000, 93.57904
43.26000, 97.27216
43.27000, 101.3960
43.28000, 105.3607
43.29000, 108.4917
43.30000, 105.5357
43.31000, 107.8466
43.32000, 114.6360
43.33000, 112.2371
43.34000, 107.2389
43.35000, 100.0592
43.36000, 92.37000
43.37000, 91.79010
43.38000, 86.87701
43.39000, 77.50543
43.40000, 73.05975
43.41000, 64.61884
43.42000, 55.74438
43.43000, 51.24255
43.44000, 47.43176
43.45000, 42.73749
43.46000, 43.80176
43.47000, 43.57312
43.48000, 47.30310
43.49000, 47.60614
43.50000, 52.01331
43.51000, 50.84161
43.52000, 52.31433
43.53000, 52.27588
43.54000, 51.75641
43.55000, 54.95319
43.56000, 49.72272
43.57000, 40.67926
43.58000, 32.05878
43.59000, 22.90765
43.60000, 22.42468
43.61000, 29.50970
43.62000, 34.38403
43.63000, 29.16156
43.64000, 26.38483
43.65000, 25.57288
43.66000, 19.31494
43.67000, 21.02563
43.68000, 29.32062
43.69000, 28.21130
43.70000, 20.90356
43.71000, 14.23724
43.72000, 13.06744
43.73000, 6.503479
43.74000, 8.337280
43.75000, 9.364746
43.76000, 4.349121
43.77000, 0.3721310
43.78000, 0.2545170
43.79000, 5.124146
43.80000, 12.26349
43.81000, 14.48792
43.82000, 15.82947
43.83000, 15.29114
43.84000, 16.49835
43.85000, 18.13214
43.86000, 15.61487
43.87000, 13.07007
43.88000, 10.95587
43.89000, 4.671143
43.90000, 7.655273
43.91000, 15.41296
43.92000, 16.39697
43.93000, 19.37640
43.94000, 22.68127
43.95000, 21.86261
43.96000, 32.88129
43.97000, 37.83331
43.98000, 38.95172
43.99000, 41.67059
44.00000, 45.08844
44.01000, 35.38257
44.02000, 37.68121
44.03000, 44.26819
44.04000, 49.87445
44.05000, 51.41107
44.06000, 53.41479
44.07000, 57.71082
44.08000, 59.65015
44.09000, 56.97961
44.10000, 56.76123
44.11000, 52.52515
44.12000, 52.59229
44.13000, 49.45453
44.14000, 48.31201
44.15000, 48.17462
44.16000, 42.67334
44.17000, 41.51520
44.18000, 47.27521
44.19000, 44.86133
44.20000, 46.82758
44.21000, 48.89294
44.22000, 48.34540
44.23000, 47.56183
44.24000, 44.17542
44.25000, 42.08307
44.26000, 44.89471
44.27000, 49.06738
44.28000, 49.39813
44.29000, 42.97382
44.30000, 42.33661
44.31000, 47.67334
44.32000, 52.20911
44.33000, 59.81177
44.34000, 58.13654
44.35000, 58.88715
44.36000, 64.18579
44.37000, 60.36841
44.38000, 58.83881
44.39000, 56.57532
44.40000, 47.55963
44.41000, 43.12207
44.42000, 42.28925
44.43000, 40.19336
44.44000, 34.67334
44.45000, 31.36511
44.46000, 21.91388
44.47000, 14.30939
44.48000, 8.775879
44.49000, 9.6069001E-02
44.50000, 2.821777
44.51000, 2.106384
44.52000, 2.235352
44.53000, 5.384338
44.54000, 9.633301
44.55000, 6.849976
44.56000, 2.365173
44.57000, 0.5460210
44.58000, 5.524841
44.59000, 5.643066
44.60000, 11.27472
44.61000, 16.04181
44.62000, 8.691711
44.63000, 3.264832
44.64000, 1.278870
44.65000, 9.521545
44.66000, 9.871948
44.67000, 9.750061
44.68000, 12.56891
44.69000, 12.81836
44.70000, 10.52271
44.71000, 9.410767
44.72000, 10.44745
44.73000, 7.409485
44.74000, 5.576782
44.75000, 8.190979
44.76000, 1.573181
44.77000, 9.741211
44.78000, 7.396973
44.79000, 6.177673
44.80000, 10.63281
44.81000, 22.17737
44.82000, 27.65057
44.83000, 30.75232
44.84000, 30.46283
44.85000, 31.89301
44.86000, 34.69775
44.87000, 34.27808
44.88000, 23.42786
44.89000, 19.78412
44.90000, 19.04272
44.91000, 15.39490
44.92000, 13.81287
44.93000, 18.11206
44.94000, 21.85797
44.95000, 19.15253
44.96000, 15.99261
44.97000, 11.85303
44.98000, 8.899414
44.99000, 7.469238
45.00000, 5.863647
45.01000, 2.566833
45.02000, 1.673035
45.03000, 0.4708860
45.04000, 3.321533
45.05000, 6.791992
45.06000, 13.13605
45.07000, 15.75934
45.08000, 17.59009
45.09000, 22.26227
45.10000, 15.78198
45.11000, 15.27917
45.12000, 20.65198
45.13000, 16.11017
45.14000, 13.50287
45.15000, 17.17615
45.16000, 15.78790
45.17000, 15.86029
45.18000, 12.22009
45.19000, 9.781433
45.20000, 9.289978
45.21000, 15.94067
45.22000, 23.23096
45.23000, 23.07678
45.24000, 22.77820
45.25000, 24.10724
45.26000, 26.38983
45.27000, 28.55017
45.28000, 29.11798
45.29000, 27.24347
45.30000, 26.98065
45.31000, 34.14636
45.32000, 37.81085
45.33000, 34.71301
45.34000, 31.29382
45.35000, 30.17535
45.36000, 27.19763
45.37000, 21.60352
45.38000, 18.50427
45.39000, 17.77972
45.40000, 15.69995
45.41000, 17.60297
45.42000, 20.95062
45.43000, 18.52014
45.44000, 23.61243
45.45000, 27.31268
45.46000, 23.08368
45.47000, 16.73248
45.48000, 23.21631
45.49000, 27.82794
45.50000, 20.76233
45.51000, 17.74384
45.52000, 29.44415
45.53000, 34.05444
45.54000, 33.82373
45.55000, 32.18695
45.56000, 29.11713
45.57000, 25.34143
45.58000, 18.54572
45.59000, 10.67303
45.60000, 8.653503
45.61000, 10.73291
45.62000, 15.43640
45.63000, 19.91809
45.64000, 21.29895
45.65000, 14.50885
45.66000, 11.59491
45.67000, 15.26721
45.68000, 19.04089
45.69000, 22.12457
45.70000, 19.11444
45.71000, 14.83246
45.72000, 11.54004
45.73000, 11.91571
45.74000, 19.16882
45.75000, 20.29547
45.76000, 16.16064
45.77000, 20.79803
45.78000, 28.61499
45.79000, 40.76172
45.80000, 43.18738
45.81000, 36.58759
45.82000, 34.66705
45.83000, 33.34070
45.84000, 30.34851
45.85000, 26.31085
45.86000, 21.96729
45.87000, 17.37762
45.88000, 12.24561
45.89000, 8.177490
45.90000, 7.200256
45.91000, 5.237549
45.92000, 3.815125
45.93000, 3.378540
45.94000, 0.9913940
45.95000, 10.02692
45.96000, 12.83221
45.97000, 14.10486
45.98000, 9.506348
45.99000, 2.696472
46.00000, 1.564087
46.01000, 7.580444
46.02000, 17.46857
46.03000, 16.62927
46.04000, 9.407288
46.05000, 9.689941
46.06000, 15.87335
46.07000, 15.42102
46.08000, 19.36798
46.09000, 22.13733
46.10000, 23.89392
46.11000, 28.41327
46.12000, 26.66632
46.13000, 28.98492
46.14000, 26.64575
46.15000, 15.70422
46.16000, 10.97125
46.17000, 11.06317
46.18000, 14.32867
46.19000, 7.489807
46.20000, 0.2109990
46.21000, 1.097290
46.22000, 1.068115
46.23000, 3.229004
46.24000, 4.344788
46.25000, 1.833923
46.26000, 3.820618
46.27000, 1.973145
46.28000, 0.4210820
46.29000, 4.325195
46.30000, 8.713135
46.31000, 10.87305
46.32000, 11.54993
46.33000, 20.12769
46.34000, 26.86444
46.35000, 33.27228
46.36000, 37.75818
46.37000, 46.52710
46.38000, 54.81396
46.39000, 53.48932
46.40000, 46.52203
46.41000, 45.37457
46.42000, 45.44733
46.43000, 42.81042
46.44000, 39.24377
46.45000, 37.44556
46.46000, 34.57361
46.47000, 37.13409
46.48000, 42.62598
46.49000, 38.41638
46.50000, 40.83521
46.51000, 47.16168
46.52000, 49.77271
46.53000, 40.93927
46.54000, 41.80457
46.55000, 39.44354
46.56000, 42.21027
46.57000, 50.99866
46.58000, 50.89307
46.59000, 47.60126
46.60000, 51.69843
46.61000, 57.42950
46.62000, 57.40564
46.63000, 63.31085
46.64000, 68.63818
46.65000, 73.29767
46.66000, 73.96136
46.67000, 74.59344
46.68000, 75.41791
46.69000, 72.40186
46.70000, 64.84723
46.71000, 55.16730
46.72000, 54.72205
46.73000, 58.93762
46.74000, 58.58209
46.75000, 56.48956
46.76000, 58.31311
46.77000, 57.69012
46.78000, 56.57153
46.79000, 52.31488
46.80000, 49.07184
46.81000, 50.44958
46.82000, 53.46875
46.83000, 48.56055
46.84000, 53.00995
46.85000, 53.45599
46.86000, 51.99664
46.87000, 58.02997
46.88000, 49.82721
46.89000, 42.60309
46.90000, 40.11255
46.91000, 36.89838
46.92000, 33.90771
46.93000, 31.17218
46.94000, 34.07953
46.95000, 38.42902
46.96000, 50.32111
46.97000, 50.10327
46.98000, 42.83319
46.99000, 39.54358
47.00000, 38.05725
47.01000, 40.28131
47.02000, 40.99048
47.03000, 34.82776
47.04000, 33.09125
47.05000, 33.59479
47.06000, 23.80280
47.07000, 22.16241
47.08000, 28.42932
47.09000, 23.00171
47.10000, 14.56464
47.11000, 8.789124
47.12000, 9.361633
47.13000, 8.176636
47.14000, 5.726318
47.15000, 2.583618
47.16000, 3.500671
47.17000, 1.568726
47.18000, 7.805908
47.19000, 12.86041
47.20000, 8.117920
47.21000, 8.535522
47.22000, 3.026062
47.23000, 1.521729
47.24000, 2.116272
47.25000, 3.366211
47.26000, 6.135864
47.27000, 7.731873
47.28000, 5.317139
47.29000, 1.542786
47.30000, 4.407166
47.31000, 7.517151
47.32000, 3.089539
47.33000, 3.054626
47.34000, 3.375549
47.35000, 9.639160
47.36000, 9.645325
47.37000, 7.816040
47.38000, 10.92059
47.39000, 11.53809
47.40000, 12.65033
47.41000, 9.951294
47.42000, 10.73035
47.43000, 16.85431
47.44000, 24.06146
47.45000, 27.20081
47.46000, 25.86731
47.47000, 29.89783
47.48000, 32.93738
47.49000, 31.97681
47.50000, 33.38965
47.51000, 35.95074
47.52000, 37.71442
47.53000, 35.34698
47.54000, 38.35822
47.55000, 40.25720
47.56000, 39.17798
47.57000, 37.46771
47.58000, 41.28448
47.59000, 45.95166
47.60000, 47.01813
47.61000, 46.83698
47.62000, 41.84222
47.63000, 36.07013
47.64000, 35.05664
47.65000, 36.08197
47.66000, 32.82434
47.67000, 24.43475
47.68000, 22.53735
47.69000, 14.97943
47.70000, 17.65216
47.71000, 21.21661
47.72000, 17.37109
47.73000, 25.66687
47.74000, 30.92023
47.75000, 29.79138
47.76000, 29.13855
47.77000, 26.32605
47.78000, 33.07935
47.79000, 33.59973
47.80000, 34.12946
47.81000, 37.83209
47.82000, 44.01520
47.83000, 51.77600
47.84000, 49.98907
47.85000, 48.90930
47.86000, 47.20825
47.87000, 43.99170
47.88000, 40.20453
47.89000, 35.89581
47.90000, 39.41565
47.91000, 42.05457
47.92000, 38.89526
47.93000, 38.58453
47.94000, 39.15710
47.95000, 36.21698
47.96000, 31.03552
47.97000, 24.61755
47.98000, 15.04919
47.99000, 17.73901
48.00000, 25.09656
48.01000, 22.09845
48.02000, 13.44067
48.03000, 12.27948
48.04000, 12.85779
48.05000, 19.81470
48.06000, 22.41425
48.07000, 20.90747
48.08000, 22.84937
48.09000, 32.78607
48.10000, 39.94855
48.11000, 36.03271
48.12000, 29.95154
48.13000, 21.31378
48.14000, 20.35596
48.15000, 17.87714
48.16000, 18.31683
48.17000, 20.69299
48.18000, 25.32538
48.19000, 22.70807
48.20000, 12.41345
48.21000, 8.029419
48.22000, 6.739502
48.23000, 2.134827
48.24000, 3.361694
48.25000, 2.060913
48.26000, 6.480713
48.27000, 18.65564
48.28000, 24.55371
48.29000, 24.46619
48.30000, 26.92963
48.31000, 24.75043
48.32000, 31.10028
48.33000, 37.15515
48.34000, 33.68903
48.35000, 29.26959
48.36000, 27.92786
48.37000, 30.36499
48.38000, 29.25104
48.39000, 28.90790
48.40000, 32.54572
48.41000, 40.14832
48.42000, 38.29291
48.43000, 40.98328
48.44000, 49.88849
48.45000, 47.84039
48.46000, 48.06494
48.47000, 46.62695
48.48000, 40.63342
48.49000, 27.89093
48.50000, 30.64722
48.51000, 35.24408
48.52000, 28.44086
48.53000, 31.26709
48.54000, 30.73010
48.55000, 35.10101
48.56000, 36.23560
48.57000, 36.42023
48.58000, 39.87585
48.59000, 38.37170
48.60000, 32.34857
48.61000, 28.81824
48.62000, 27.20386
48.63000, 29.05084
48.64000, 34.60254
48.65000, 35.85431
48.66000, 36.77344
48.67000, 30.62354
48.68000, 12.03174
48.69000, 2.818054
48.70000, 5.738525
48.71000, 1.969116
48.72000, 2.325928
48.73000, 2.426514
48.74000, 11.65820
48.75000, 27.70233
48.76000, 34.12640
48.77000, 38.00720
48.78000, 44.06641
48.79000, 41.37665
48.80000, 21.31104
48.81000, 19.97571
48.82000, 32.01141
48.83000, 36.02673
48.84000, 37.69287
48.85000, 45.07477
48.86000, 41.16412
48.87000, 37.50153
48.88000, 22.79382
48.89000, 12.04510
48.90000, 11.76617
48.91000, 20.81689
48.92000, 25.99847
48.93000, 25.29327
48.94000, 29.77612
48.95000, 35.19232
48.96000, 44.94745
48.97000, 51.21271
48.98000, 53.20996
48.99000, 40.42395
49.00000, 45.08417
49.01000, 47.88361
49.02000, 47.20685
49.03000, 72.26294
49.04000, 85.94189
49.05000, 101.4094
49.06000, 100.5920
49.07000, 66.96790
49.08000, 67.18188
49.09000, 62.36639
49.10000, 42.63391
49.11000, 42.35956
49.12000, 19.26367
49.13000, 16.03156
49.14000, 35.57520
49.15000, 52.33386
49.16000, 26.77191
49.17000, 0.4075930
49.18000, 0.0000000E+00
##END=



