##NAMES=Agardite-(Y)
##RRUFFID=R070357
##IDEAL CHEMISTRY=Cu^2+^_6_Y^3+^(As^5+^O_4_)_3_(OH)_6_&#183;3H_2_O
##LOCALITY=Hayashi, Setoda, Ikuchi Island, Hiroshima Prefecture, Chugoku Region, Honshu Island, Japan
##OWNER=Michael Scott
##SOURCE=Michael Scott
##DESCRIPTION=Green acicular to fibrous in spherical aggregates
##DIFFRACTION SAMPLE DESCRIPTION=Powder, using Mo radiation
##STATUS=The identification of this mineral is confirmed by single-crystal X-ray diffraction and chemical analysis.
##URL=rruff.info/R070357
##MEASURED CHEMISTRY=(Cu_5.59_Ca_0.28_Zn_0.03_Fe_0.01_)_Σ=5.91_(Y_0.35_La_0.08_Nd_0.06_Gd_0.03_Ce_0.02_Sm_0.01_Pr_0.01_Al_0.50_)_Σ=1.05_[(AsO_4_)_0.80_(SiO_4_)_0.14_(PO_4_)_0.02_]_3_(OH)_6_·3.51H_2_O
##CELL PARAMETERS=a: 13.571(2) b: 13.571(2) c: 5.904(2) alpha: 90 beta: 90 gamma: 120 volume: 941.8(3) crystal system: hexagonal
6.000000, 0.0000000E+00
6.010000, 5.538696
6.020000, 5.233887
6.030000, 10.87036
6.040000, 16.05286
6.050000, 8.019958
6.060000, 0.9409180
6.070000, 1.479797
6.080000, 2.046814
6.090000, 8.221069
6.100000, 16.24396
6.110000, 23.21844
6.120000, 27.53857
6.130000, 26.32953
6.140000, 25.89746
6.150000, 29.10425
6.160000, 33.28583
6.170000, 30.64459
6.180000, 24.83832
6.190000, 25.73547
6.200000, 26.37408
6.210000, 28.68298
6.220000, 33.72095
6.230000, 34.15662
6.240000, 31.05920
6.250000, 31.51746
6.260000, 39.55090
6.270000, 49.96851
6.280000, 52.42981
6.290000, 46.93359
6.300000, 45.78662
6.310000, 44.04272
6.320000, 41.77136
6.330000, 35.05151
6.340000, 31.58215
6.350000, 34.46265
6.360000, 31.72217
6.370000, 26.12048
6.380000, 21.09692
6.390000, 18.16113
6.400000, 19.09326
6.410000, 15.45312
6.420000, 9.320801
6.430000, 13.02563
6.440000, 18.86768
6.450000, 23.65637
6.460000, 32.61157
6.470000, 41.38318
6.480000, 44.55066
6.490000, 43.70410
6.500000, 39.96338
6.510000, 37.09827
6.520000, 33.41870
6.530000, 31.68445
6.540000, 30.13550
6.550000, 21.15149
6.560000, 12.80261
6.570000, 10.68860
6.580000, 7.459351
6.590000, 1.504639
6.600000, 1.813110
6.610000, 5.465820
6.620000, 3.026123
6.630000, 1.880005
6.640000, 9.350342
6.650000, 18.70093
6.660000, 25.80212
6.670000, 30.73438
6.680000, 28.45764
6.690000, 26.72241
6.700000, 25.50879
6.710000, 23.43677
6.720000, 22.67651
6.730000, 21.28809
6.740000, 20.99146
6.750000, 17.43689
6.760000, 14.09460
6.770000, 12.77539
6.780000, 13.64172
6.790000, 13.64075
6.800000, 15.78589
6.810000, 14.15930
6.820000, 7.656006
6.830000, 7.034546
6.840000, 8.195190
6.850000, 10.01794
6.860000, 7.232788
6.870000, 5.059570
6.880000, 9.998779
6.890000, 15.82019
6.900000, 12.90320
6.910000, 10.07825
6.920000, 5.835815
6.930000, 8.485229
6.940000, 12.72693
6.950000, 16.10095
6.960000, 20.53723
6.970000, 20.09558
6.980000, 14.77625
6.990000, 12.95923
7.000000, 10.30457
7.010000, 7.252075
7.020000, 7.031616
7.030000, 12.42358
7.040000, 19.77783
7.050000, 24.60449
7.060000, 26.78308
7.070000, 24.54419
7.080000, 24.59753
7.090000, 23.25317
7.100000, 20.90088
7.110000, 22.79102
7.120000, 26.26355
7.130000, 23.34814
7.140000, 20.65491
7.150000, 17.80432
7.160000, 14.86597
7.170000, 12.42407
7.180000, 13.11218
7.190000, 13.22559
7.200000, 14.96936
7.210000, 16.44775
7.220000, 13.51135
7.230000, 14.73181
7.240000, 16.23572
7.250000, 15.96777
7.260000, 14.87903
7.270000, 14.51941
7.280000, 19.74072
7.290000, 21.53394
7.300000, 21.56189
7.310000, 24.57446
7.320000, 20.80127
7.330000, 23.25244
7.340000, 26.22754
7.350000, 26.23645
7.360000, 27.39905
7.370000, 34.95520
7.380000, 39.84485
7.390000, 37.86792
7.400000, 36.30420
7.410000, 33.77380
7.420000, 26.78638
7.430000, 21.64209
7.440000, 18.17078
7.450000, 8.632568
7.460000, 7.567017
7.470000, 15.39453
7.480000, 12.77441
7.490000, 11.03735
7.500000, 19.01221
7.510000, 20.16956
7.520000, 26.01941
7.530000, 32.47205
7.540000, 32.12732
7.550000, 36.33057
7.560000, 42.16577
7.570000, 48.10803
7.580000, 49.70251
7.590000, 54.31018
7.600000, 57.91052
7.610000, 55.69373
7.620000, 58.43079
7.630000, 62.84644
7.640000, 69.94409
7.650000, 79.51416
7.660000, 89.90613
7.670000, 97.08032
7.680000, 99.07642
7.690000, 101.8945
7.700000, 101.5947
7.710000, 97.34692
7.720000, 100.7711
7.730000, 104.9272
7.740000, 99.94519
7.750000, 93.16516
7.760000, 87.33691
7.770000, 80.09070
7.780000, 79.63623
7.790000, 74.39905
7.800000, 66.87817
7.810000, 61.34912
7.820000, 57.00171
7.830000, 49.52600
7.840000, 44.29211
7.850000, 43.41992
7.860000, 36.93958
7.870000, 32.02075
7.880000, 30.97388
7.890000, 25.22876
7.900000, 16.74536
7.910000, 10.74365
7.920000, 9.953735
7.930000, 7.535645
7.940000, 6.959229
7.950000, 9.604492
7.960000, 10.09167
7.970000, 6.240479
7.980000, 2.860962
7.990000, 1.813110
8.000000, 6.906982
8.010000, 8.592651
8.020000, 4.769897
8.030000, 1.088867
8.040000, 0.8693850
8.050000, 6.381470
8.060000, 6.665405
8.070000, 10.59082
8.080000, 17.16785
8.090000, 16.53662
8.100000, 17.39697
8.110000, 25.04895
8.120000, 30.82263
8.130000, 34.78784
8.140000, 28.38477
8.150000, 17.62329
8.160000, 17.54333
8.170000, 16.55505
8.180000, 14.92822
8.190000, 11.37329
8.200000, 10.86975
8.210000, 8.177856
8.220000, 6.147583
8.230000, 7.688843
8.240000, 4.611938
8.250000, 5.207031
8.260000, 11.09485
8.270000, 11.75537
8.280000, 4.849121
8.290000, 2.946411
8.300000, 7.946899
8.310000, 9.520386
8.320000, 2.676392
8.330000, 1.434692
8.340000, 4.713013
8.350000, 8.859985
8.360000, 5.437622
8.370000, 3.785767
8.380000, 2.455811
8.390000, 3.935791
8.400000, 5.135864
8.410000, 1.484375
8.420000, 1.547485
8.430000, 3.476807
8.440000, 4.220093
8.450000, 1.312744
8.460000, 5.096313
8.470000, 6.828491
8.480000, 4.462402
8.490000, 4.438599
8.500000, 5.906616
8.510000, 8.676636
8.520000, 14.22839
8.530000, 18.82239
8.540000, 18.99829
8.550000, 19.96582
8.560000, 16.56812
8.570000, 13.88574
8.580000, 15.29773
8.590000, 14.19324
8.600000, 11.69202
8.610000, 7.503296
8.620000, 1.436646
8.630000, 1.971680
8.640000, 4.958618
8.650000, 9.407349
8.660000, 15.14771
8.670000, 17.95007
8.680000, 20.25427
8.690000, 16.61047
8.700000, 10.56836
8.710000, 8.068115
8.720000, 4.469482
8.730000, 2.877319
8.740000, 2.763672
8.750000, 1.869385
8.760000, 2.045654
8.770000, 5.662598
8.780000, 3.008911
8.790000, 5.580078
8.800000, 5.571777
8.810000, 3.214233
8.820000, 2.433594
8.830000, 8.333130
8.840000, 14.92432
8.850000, 32.34705
8.860000, 54.15173
8.870000, 73.42786
8.880000, 88.32581
8.890000, 99.60547
8.900000, 118.9169
8.910000, 141.5199
8.920000, 164.4244
8.930000, 197.8108
8.940000, 243.2587
8.950000, 278.5583
8.960000, 308.1196
8.970000, 341.2426
8.980000, 367.7772
8.990000, 386.7034
9.000000, 407.4115
9.010000, 429.9811
9.020000, 455.7025
9.030000, 476.2355
9.040000, 491.0199
9.050000, 501.4563
9.060000, 507.7240
9.070000, 516.4735
9.080000, 523.6245
9.090000, 524.5173
9.100000, 530.6516
9.110000, 532.4977
9.120000, 521.2053
9.130000, 504.2644
9.140000, 482.2452
9.150000, 450.7976
9.160000, 418.4415
9.170000, 387.1573
9.180000, 354.0546
9.190000, 317.0232
9.200000, 285.0437
9.210000, 256.7855
9.220000, 233.5193
9.230000, 213.5244
9.240000, 195.6512
9.250000, 181.4396
9.260000, 169.8295
9.270000, 153.9110
9.280000, 138.8842
9.290000, 126.1887
9.300000, 109.0651
9.310000, 99.90283
9.320000, 96.74219
9.330000, 84.13318
9.340000, 77.00586
9.350000, 74.03992
9.360000, 67.05566
9.370000, 61.01306
9.380000, 54.60205
9.390000, 47.37231
9.400000, 43.75427
9.410000, 34.80798
9.420000, 27.43323
9.430000, 23.04102
9.440000, 17.90283
9.450000, 14.17810
9.460000, 9.294067
9.470000, 5.703979
9.480000, 7.498047
9.490000, 8.938477
9.500000, 14.21912
9.510000, 22.15051
9.520000, 29.09277
9.530000, 27.03088
9.540000, 25.08496
9.550000, 28.48193
9.560000, 36.50769
9.570000, 45.86475
9.580000, 56.80249
9.590000, 68.84424
9.600000, 85.67798
9.610000, 97.80090
9.620000, 108.6736
9.630000, 122.7615
9.640000, 129.2242
9.650000, 137.4363
9.660000, 150.5167
9.670000, 164.9689
9.680000, 174.8025
9.690000, 184.5173
9.700000, 188.6838
9.710000, 193.4717
9.720000, 200.3608
9.730000, 199.8116
9.740000, 196.9746
9.750000, 192.8732
9.760000, 185.0645
9.770000, 179.1560
9.780000, 171.7673
9.790000, 155.2549
9.800000, 146.7278
9.810000, 139.2755
9.820000, 134.3181
9.830000, 122.4222
9.840000, 110.2572
9.850000, 97.46338
9.860000, 89.86414
9.870000, 90.25867
9.880000, 84.92163
9.890000, 77.72266
9.900000, 70.36499
9.910000, 56.62842
9.920000, 45.83313
9.930000, 38.88879
9.940000, 31.06006
9.950000, 28.44312
9.960000, 26.03259
9.970000, 23.14343
9.980000, 22.79443
9.990000, 23.07642
10.00000, 21.52905
10.01000, 19.76135
10.02000, 19.30835
10.03000, 16.45667
10.04000, 15.86621
10.05000, 15.03687
10.06000, 14.45898
10.07000, 18.02222
10.08000, 21.73682
10.09000, 20.27271
10.10000, 18.78979
10.11000, 19.86804
10.12000, 19.18762
10.13000, 10.89856
10.14000, 7.120605
10.15000, 15.00403
10.16000, 24.12866
10.17000, 31.12451
10.18000, 38.58167
10.19000, 43.69006
10.20000, 43.77979
10.21000, 46.11047
10.22000, 46.99280
10.23000, 39.61609
10.24000, 34.05066
10.25000, 38.23657
10.26000, 42.66382
10.27000, 47.65210
10.28000, 56.90173
10.29000, 65.64258
10.30000, 69.21484
10.31000, 75.24805
10.32000, 79.97290
10.33000, 81.19861
10.34000, 83.13562
10.35000, 86.22400
10.36000, 86.98364
10.37000, 86.10461
10.38000, 86.56677
10.39000, 77.38000
10.40000, 68.98450
10.41000, 67.12048
10.42000, 60.93750
10.43000, 55.71594
10.44000, 49.24548
10.45000, 42.02637
10.46000, 35.21838
10.47000, 29.23169
10.48000, 30.28650
10.49000, 29.69263
10.50000, 30.26013
10.51000, 25.22888
10.52000, 21.03931
10.53000, 19.90149
10.54000, 22.00513
10.55000, 25.91028
10.56000, 24.70679
10.57000, 25.60486
10.58000, 26.69507
10.59000, 16.60767
10.60000, 7.732544
10.61000, 7.119629
10.62000, 2.937988
10.63000, 0.3725590
10.64000, 2.062012
10.65000, 2.961548
10.66000, 4.751709
10.67000, 6.162964
10.68000, 4.876587
10.69000, 3.662231
10.70000, 2.189331
10.71000, 3.647217
10.72000, 3.856689
10.73000, 0.3625490
10.74000, 5.682983
10.75000, 6.096680
10.76000, 9.182495
10.77000, 13.84021
10.78000, 7.749756
10.79000, 0.3912350
10.80000, 1.445801
10.81000, 1.233276
10.82000, 1.818848
10.83000, 4.482788
10.84000, 8.468628
10.85000, 11.99609
10.86000, 12.06470
10.87000, 9.264648
10.88000, 11.05603
10.89000, 19.37854
10.90000, 23.14233
10.91000, 21.67737
10.92000, 16.90393
10.93000, 3.721558
10.94000, 8.599609
10.95000, 12.89441
10.96000, 8.285156
10.97000, 5.539673
10.98000, 3.376343
10.99000, 1.264404
11.00000, 2.857422
11.01000, 3.850342
11.02000, 3.614746
11.03000, 7.870239
11.04000, 6.267212
11.05000, 3.015381
11.06000, 1.234863
11.07000, 2.975342
11.08000, 8.127075
11.09000, 15.17004
11.10000, 21.07446
11.11000, 31.79028
11.12000, 38.58740
11.13000, 42.75659
11.14000, 49.83777
11.15000, 57.52075
11.16000, 62.33521
11.17000, 68.93115
11.18000, 86.53918
11.19000, 98.70984
11.20000, 107.3832
11.21000, 132.9188
11.22000, 162.5459
11.23000, 188.9746
11.24000, 219.2946
11.25000, 261.7363
11.26000, 303.3593
11.27000, 342.7039
11.28000, 390.3899
11.29000, 434.6375
11.30000, 479.4165
11.31000, 517.1671
11.32000, 553.0192
11.33000, 593.6827
11.34000, 640.2681
11.35000, 698.0247
11.36000, 750.6029
11.37000, 793.6626
11.38000, 826.7738
11.39000, 855.2766
11.40000, 876.2009
11.41000, 887.7269
11.42000, 889.6042
11.43000, 889.3534
11.44000, 880.9539
11.45000, 860.4860
11.46000, 833.7297
11.47000, 801.9149
11.48000, 763.3416
11.49000, 726.1699
11.50000, 680.5499
11.51000, 631.0916
11.52000, 584.4147
11.53000, 537.0494
11.54000, 492.6257
11.55000, 449.5837
11.56000, 414.2133
11.57000, 377.3545
11.58000, 336.9473
11.59000, 303.8517
11.60000, 275.8776
11.61000, 248.4752
11.62000, 224.4446
11.63000, 204.3955
11.64000, 184.6681
11.65000, 170.4524
11.66000, 158.0082
11.67000, 142.8534
11.68000, 126.7913
11.69000, 115.2622
11.70000, 108.0945
11.71000, 104.0209
11.72000, 104.1389
11.73000, 104.3057
11.74000, 105.3998
11.75000, 107.9548
11.76000, 112.9347
11.77000, 121.5460
11.78000, 128.7721
11.79000, 133.7668
11.80000, 142.0027
11.81000, 146.8669
11.82000, 151.8657
11.83000, 161.0862
11.84000, 167.5515
11.85000, 170.8940
11.86000, 177.8702
11.87000, 188.7024
11.88000, 193.3002
11.89000, 193.6406
11.90000, 193.6038
11.91000, 194.9491
11.92000, 196.2141
11.93000, 193.9722
11.94000, 193.7645
11.95000, 190.6089
11.96000, 189.3350
11.97000, 189.0227
11.98000, 182.8824
11.99000, 169.2538
12.00000, 160.4675
12.01000, 153.0347
12.02000, 140.1110
12.03000, 126.5297
12.04000, 116.3002
12.05000, 101.8926
12.06000, 91.82654
12.07000, 87.55273
12.08000, 81.34058
12.09000, 72.58008
12.10000, 61.51172
12.11000, 53.35498
12.12000, 45.52014
12.13000, 35.79626
12.14000, 30.21021
12.15000, 29.97473
12.16000, 29.35205
12.17000, 28.81299
12.18000, 33.20105
12.19000, 39.53699
12.20000, 44.21130
12.21000, 51.91431
12.22000, 59.75879
12.23000, 67.56567
12.24000, 76.45483
12.25000, 88.07251
12.26000, 102.1207
12.27000, 121.8650
12.28000, 142.2852
12.29000, 156.5485
12.30000, 168.0049
12.31000, 179.6544
12.32000, 192.6979
12.33000, 198.3568
12.34000, 208.2612
12.35000, 218.1401
12.36000, 222.4530
12.37000, 224.2782
12.38000, 225.9858
12.39000, 231.1356
12.40000, 240.0782
12.41000, 251.5630
12.42000, 259.5198
12.43000, 262.4386
12.44000, 261.2594
12.45000, 259.1324
12.46000, 250.9973
12.47000, 241.9545
12.48000, 237.6836
12.49000, 234.8248
12.50000, 225.1782
12.51000, 216.0735
12.52000, 209.3607
12.53000, 203.9402
12.54000, 195.4617
12.55000, 182.0453
12.56000, 169.9711
12.57000, 160.5288
12.58000, 151.3785
12.59000, 139.5605
12.60000, 122.2247
12.61000, 108.2111
12.62000, 100.2695
12.63000, 94.69019
12.64000, 94.34314
12.65000, 88.73804
12.66000, 72.61523
12.67000, 62.01465
12.68000, 58.66614
12.69000, 52.30994
12.70000, 40.67590
12.71000, 29.49390
12.72000, 29.79419
12.73000, 31.29639
12.74000, 28.22107
12.75000, 30.29785
12.76000, 31.09668
12.77000, 25.88770
12.78000, 21.13110
12.79000, 17.39636
12.80000, 19.36389
12.81000, 17.39368
12.82000, 12.02551
12.83000, 11.01953
12.84000, 9.485718
12.85000, 2.644043
12.86000, 1.385498
12.87000, 0.7432860
12.88000, 0.9107670
12.89000, 0.3630370
12.90000, 3.084961
12.91000, 2.605591
12.92000, 0.3348390
12.93000, 2.672363
12.94000, 1.268433
12.95000, 1.662842
12.96000, 4.325562
12.97000, 6.437744
12.98000, 6.180054
12.99000, 4.972534
13.00000, 2.4780000E-02
13.01000, 0.2648930
13.02000, 4.833008
13.03000, 4.519897
13.04000, 3.525513
13.05000, 5.158813
13.06000, 2.340210
13.07000, 3.721802
13.08000, 6.727539
13.09000, 9.456665
13.10000, 14.44910
13.11000, 18.39502
13.12000, 21.73413
13.13000, 21.22607
13.14000, 10.97986
13.15000, 4.176025
13.16000, 0.5340580
13.17000, 1.204224
13.18000, 4.756592
13.19000, 4.271240
13.20000, 2.708984
13.21000, 0.2393800
13.22000, 1.182129
13.23000, 5.066895
13.24000, 7.973755
13.25000, 9.282471
13.26000, 8.873413
13.27000, 8.036377
13.28000, 12.25146
13.29000, 17.53833
13.30000, 12.72742
13.31000, 1.958496
13.32000, 2.531616
13.33000, 9.736816
13.34000, 9.846436
13.35000, 7.291626
13.36000, 9.301514
13.37000, 13.35510
13.38000, 15.31189
13.39000, 13.39148
13.40000, 14.21301
13.41000, 16.76660
13.42000, 16.92224
13.43000, 13.23975
13.44000, 8.309204
13.45000, 10.30444
13.46000, 9.979370
13.47000, 8.420288
13.48000, 10.33337
13.49000, 8.070557
13.50000, 4.599365
13.51000, 12.96265
13.52000, 19.21204
13.53000, 19.94690
13.54000, 27.94226
13.55000, 39.49243
13.56000, 47.57971
13.57000, 56.41650
13.58000, 69.02832
13.59000, 84.80127
13.60000, 102.0391
13.61000, 120.6985
13.62000, 142.2395
13.63000, 168.8220
13.64000, 197.2460
13.65000, 226.1116
13.66000, 262.8186
13.67000, 293.9373
13.68000, 327.5275
13.69000, 356.6890
13.70000, 384.5122
13.71000, 420.4672
13.72000, 451.9940
13.73000, 490.2427
13.74000, 523.2736
13.75000, 553.5882
13.76000, 583.6880
13.77000, 605.6224
13.78000, 621.9124
13.79000, 632.1780
13.80000, 633.0096
13.81000, 628.1853
13.82000, 620.6432
13.83000, 611.6530
13.84000, 595.6640
13.85000, 570.6267
13.86000, 539.2906
13.87000, 511.6258
13.88000, 485.5222
13.89000, 447.9202
13.90000, 413.8894
13.91000, 384.1900
13.92000, 355.7418
13.93000, 325.7449
13.94000, 296.9792
13.95000, 265.8249
13.96000, 236.2217
13.97000, 210.9898
13.98000, 186.2694
13.99000, 162.0802
14.00000, 149.2021
14.01000, 138.6155
14.02000, 126.6299
14.03000, 113.3558
14.04000, 107.4529
14.05000, 108.1212
14.06000, 108.0829
14.07000, 106.4549
14.08000, 104.3868
14.09000, 104.8300
14.10000, 116.4020
14.11000, 125.8854
14.12000, 131.2227
14.13000, 141.4954
14.14000, 151.6302
14.15000, 163.6228
14.16000, 172.9568
14.17000, 176.2488
14.18000, 185.6952
14.19000, 195.0229
14.20000, 199.4655
14.21000, 203.7847
14.22000, 205.5831
14.23000, 208.2173
14.24000, 209.9080
14.25000, 207.7352
14.26000, 201.6069
14.27000, 195.4908
14.28000, 189.2661
14.29000, 187.9324
14.30000, 186.1897
14.31000, 182.1382
14.32000, 172.2178
14.33000, 156.8883
14.34000, 141.6198
14.35000, 125.8423
14.36000, 116.3958
14.37000, 110.8405
14.38000, 105.7660
14.39000, 98.12238
14.40000, 83.12976
14.41000, 68.88757
14.42000, 61.48688
14.43000, 52.83704
14.44000, 44.71808
14.45000, 41.08008
14.46000, 37.64282
14.47000, 29.98645
14.48000, 19.99707
14.49000, 17.81836
14.50000, 14.61652
14.51000, 12.31854
14.52000, 15.20526
14.53000, 11.82983
14.54000, 7.134155
14.55000, 6.275269
14.56000, 6.800964
14.57000, 6.553406
14.58000, 5.030457
14.59000, 3.791260
14.60000, 5.267578
14.61000, 6.588684
14.62000, 8.670349
14.63000, 2.937622
14.64000, 2.819580
14.65000, 2.408325
14.66000, 2.448303
14.67000, 2.428833
14.68000, 2.610596
14.69000, 2.408936
14.70000, 5.844788
14.71000, 12.03876
14.72000, 12.07697
14.73000, 8.632568
14.74000, 5.597717
14.75000, 0.2979130
14.76000, 1.893311
14.77000, 0.3818970
14.78000, 0.5348510
14.79000, 3.464539
14.80000, 9.131287
14.81000, 13.87146
14.82000, 21.02600
14.83000, 28.68286
14.84000, 41.25116
14.85000, 52.74585
14.86000, 60.04382
14.87000, 74.51910
14.88000, 91.49475
14.89000, 107.9395
14.90000, 123.1860
14.91000, 141.7867
14.92000, 164.5048
14.93000, 189.8002
14.94000, 210.8456
14.95000, 229.7135
14.96000, 249.7799
14.97000, 266.0708
14.98000, 282.1560
14.99000, 291.1924
15.00000, 296.2837
15.01000, 302.1204
15.02000, 305.5690
15.03000, 314.5158
15.04000, 324.2024
15.05000, 328.4290
15.06000, 325.6752
15.07000, 322.9613
15.08000, 318.0371
15.09000, 308.6027
15.10000, 297.7780
15.11000, 289.8134
15.12000, 277.8985
15.13000, 264.1936
15.14000, 245.1804
15.15000, 223.4902
15.16000, 199.3325
15.17000, 177.2379
15.18000, 157.3761
15.19000, 140.0754
15.20000, 122.0554
15.21000, 104.5652
15.22000, 93.09491
15.23000, 84.81415
15.24000, 73.52600
15.25000, 64.83936
15.26000, 55.26947
15.27000, 49.85736
15.28000, 48.77869
15.29000, 46.56177
15.30000, 43.30975
15.31000, 41.49097
15.32000, 41.33191
15.33000, 44.51898
15.34000, 49.86505
15.35000, 50.69977
15.36000, 46.00427
15.37000, 43.29718
15.38000, 42.74597
15.39000, 41.71771
15.40000, 41.84375
15.41000, 46.08063
15.42000, 47.60596
15.43000, 44.10016
15.44000, 44.47534
15.45000, 48.02802
15.46000, 45.27753
15.47000, 43.45062
15.48000, 38.29620
15.49000, 32.34210
15.50000, 28.66650
15.51000, 26.27820
15.52000, 22.35632
15.53000, 23.16766
15.54000, 24.10223
15.55000, 23.06812
15.56000, 25.58533
15.57000, 36.03271
15.58000, 39.35950
15.59000, 39.16052
15.60000, 39.12683
15.61000, 42.47632
15.62000, 43.97815
15.63000, 43.50330
15.64000, 46.22992
15.65000, 52.38885
15.66000, 55.74097
15.67000, 55.09235
15.68000, 54.35394
15.69000, 57.68872
15.70000, 59.47064
15.71000, 63.15472
15.72000, 68.48682
15.73000, 73.94794
15.74000, 84.40808
15.75000, 98.25732
15.76000, 109.1925
15.77000, 118.2217
15.78000, 128.1510
15.79000, 136.3192
15.80000, 143.0374
15.81000, 144.2145
15.82000, 148.7506
15.83000, 154.7357
15.84000, 158.9359
15.85000, 160.1976
15.86000, 152.8889
15.87000, 145.9929
15.88000, 146.9351
15.89000, 145.0962
15.90000, 138.4436
15.91000, 131.5018
15.92000, 128.1590
15.93000, 116.1526
15.94000, 101.9551
15.95000, 98.47937
15.96000, 88.78162
15.97000, 74.98169
15.98000, 67.09210
15.99000, 56.50140
16.00000, 47.22479
16.01000, 41.92920
16.02000, 34.53973
16.03000, 29.16730
16.04000, 28.55286
16.05000, 26.89856
16.06000, 22.34418
16.07000, 16.82092
16.08000, 8.924561
16.09000, 4.687012
16.10000, 4.502808
16.11000, 4.732971
16.12000, 1.977356
16.13000, 5.124512
16.14000, 9.294434
16.15000, 8.456543
16.16000, 10.75238
16.17000, 12.72510
16.18000, 11.95178
16.19000, 6.771179
16.20000, 1.247559
16.21000, 3.874573
16.22000, 10.82074
16.23000, 14.06555
16.24000, 17.35229
16.25000, 29.64203
16.26000, 39.70453
16.27000, 48.90753
16.28000, 60.42853
16.29000, 72.29242
16.30000, 84.35284
16.31000, 98.04791
16.32000, 112.4362
16.33000, 135.2433
16.34000, 164.1465
16.35000, 200.1494
16.36000, 247.5356
16.37000, 308.4985
16.38000, 375.8900
16.39000, 449.6320
16.40000, 534.2180
16.41000, 622.7074
16.42000, 733.0537
16.43000, 851.4586
16.44000, 983.4920
16.45000, 1120.934
16.46000, 1253.765
16.47000, 1397.874
16.48000, 1531.714
16.49000, 1669.665
16.50000, 1801.035
16.51000, 1928.854
16.52000, 2054.604
16.53000, 2163.526
16.54000, 2258.194
16.55000, 2336.684
16.56000, 2395.702
16.57000, 2418.990
16.58000, 2424.535
16.59000, 2404.469
16.60000, 2347.017
16.61000, 2279.752
16.62000, 2198.157
16.63000, 2091.975
16.64000, 1978.932
16.65000, 1855.615
16.66000, 1728.554
16.67000, 1591.212
16.68000, 1455.177
16.69000, 1318.031
16.70000, 1184.322
16.71000, 1058.944
16.72000, 937.1125
16.73000, 820.9050
16.74000, 710.1024
16.75000, 606.4199
16.76000, 513.9932
16.77000, 435.4612
16.78000, 369.6934
16.79000, 309.8209
16.80000, 257.5513
16.81000, 213.7880
16.82000, 180.2673
16.83000, 152.4227
16.84000, 126.2804
16.85000, 109.2872
16.86000, 96.39526
16.87000, 88.09143
16.88000, 79.59418
16.89000, 69.75983
16.90000, 62.94647
16.91000, 59.99756
16.92000, 59.40997
16.93000, 54.35974
16.94000, 43.79694
16.95000, 33.29755
16.96000, 28.19446
16.97000, 29.01880
16.98000, 28.39166
16.99000, 25.01886
17.00000, 23.07434
17.01000, 25.22729
17.02000, 29.25372
17.03000, 29.50146
17.04000, 22.59473
17.05000, 18.53424
17.06000, 15.18011
17.07000, 19.60022
17.08000, 23.19379
17.09000, 22.10663
17.10000, 21.96375
17.11000, 24.68768
17.12000, 28.70038
17.13000, 30.22699
17.14000, 36.72186
17.15000, 44.48145
17.16000, 47.50446
17.17000, 53.42041
17.18000, 56.25037
17.19000, 53.28772
17.20000, 52.05438
17.21000, 48.28247
17.22000, 48.29492
17.23000, 46.43579
17.24000, 43.18011
17.25000, 42.95074
17.26000, 42.83563
17.27000, 39.02307
17.28000, 36.41699
17.29000, 39.04083
17.30000, 42.46509
17.31000, 43.47882
17.32000, 45.55695
17.33000, 46.92053
17.34000, 46.77911
17.35000, 42.72107
17.36000, 33.22595
17.37000, 28.17133
17.38000, 30.47589
17.39000, 33.86133
17.40000, 32.84991
17.41000, 26.64203
17.42000, 21.73547
17.43000, 18.85962
17.44000, 16.28247
17.45000, 13.49213
17.46000, 12.60150
17.47000, 10.92657
17.48000, 9.241211
17.49000, 7.166626
17.50000, 5.199402
17.51000, 0.9526980
17.52000, 5.318909
17.53000, 10.21497
17.54000, 9.210999
17.55000, 10.84595
17.56000, 10.51666
17.57000, 4.003113
17.58000, 1.345764
17.59000, 2.048218
17.60000, 5.012634
17.61000, 9.322571
17.62000, 15.81616
17.63000, 18.16864
17.64000, 16.18695
17.65000, 16.81604
17.66000, 14.08289
17.67000, 11.16656
17.68000, 10.36993
17.69000, 5.649902
17.70000, 2.969360
17.71000, 3.869263
17.72000, 1.080811
17.73000, 1.629761
17.74000, 1.380249
17.75000, 1.081726
17.76000, 0.1255490
17.77000, 0.9572140
17.78000, 1.770386
17.79000, 1.283691
17.80000, 1.422852
17.81000, 1.771301
17.82000, 2.010559
17.83000, 0.5895390
17.84000, 4.523865
17.85000, 4.691406
17.86000, 3.514038
17.87000, 5.099609
17.88000, 9.738647
17.89000, 7.563660
17.90000, 9.262329
17.91000, 12.39062
17.92000, 14.35278
17.93000, 11.65466
17.94000, 8.889404
17.95000, 7.112854
17.96000, 10.32080
17.97000, 11.36652
17.98000, 9.653992
17.99000, 8.562317
18.00000, 6.655151
18.01000, 1.220703
18.02000, 0.4816890
18.03000, 3.576782
18.04000, 7.845520
18.05000, 6.196899
18.06000, 3.849915
18.07000, 7.113403
18.08000, 6.944580
18.09000, 12.50543
18.10000, 17.79327
18.11000, 21.11182
18.12000, 24.33435
18.13000, 26.58282
18.14000, 30.62506
18.15000, 34.36835
18.16000, 40.46948
18.17000, 47.26465
18.18000, 56.60675
18.19000, 65.15570
18.20000, 70.10266
18.21000, 77.39459
18.22000, 85.69843
18.23000, 90.63623
18.24000, 92.16101
18.25000, 96.14899
18.26000, 101.3789
18.27000, 105.0192
18.28000, 109.5860
18.29000, 113.9586
18.30000, 117.9742
18.31000, 119.1498
18.32000, 119.6673
18.33000, 122.6307
18.34000, 121.2661
18.35000, 120.3994
18.36000, 120.6566
18.37000, 117.5577
18.38000, 113.5627
18.39000, 108.7717
18.40000, 104.9537
18.41000, 101.4576
18.42000, 94.75739
18.43000, 87.54523
18.44000, 80.28998
18.45000, 76.98163
18.46000, 76.75928
18.47000, 75.88190
18.48000, 78.56757
18.49000, 80.17352
18.50000, 79.83374
18.51000, 81.45038
18.52000, 83.38562
18.53000, 87.19519
18.54000, 102.4415
18.55000, 107.8000
18.56000, 100.4774
18.57000, 103.3364
18.58000, 108.6906
18.59000, 113.5687
18.60000, 120.4136
18.61000, 123.8500
18.62000, 119.8284
18.63000, 116.9877
18.64000, 115.3032
18.65000, 116.3577
18.66000, 115.2625
18.67000, 108.4515
18.68000, 104.3936
18.69000, 102.0137
18.70000, 96.10822
18.71000, 88.29095
18.72000, 83.21991
18.73000, 79.93842
18.74000, 75.58380
18.75000, 71.61517
18.76000, 68.28320
18.77000, 65.14075
18.78000, 63.02936
18.79000, 57.83228
18.80000, 49.06543
18.81000, 43.91083
18.82000, 39.48303
18.83000, 35.29132
18.84000, 26.11694
18.85000, 23.29791
18.86000, 23.75189
18.87000, 21.36304
18.88000, 19.58691
18.89000, 13.82544
18.90000, 10.09052
18.91000, 9.799927
18.92000, 8.391052
18.93000, 5.588257
18.94000, 2.704163
18.95000, 2.196228
18.96000, 4.393005
18.97000, 7.414368
18.98000, 8.949280
18.99000, 7.724731
19.00000, 5.636963
19.01000, 4.204041
19.02000, 2.542603
19.03000, 3.975098
19.04000, 4.244934
19.05000, 5.541504
19.06000, 6.601257
19.07000, 8.985596
19.08000, 12.64642
19.09000, 14.77942
19.10000, 13.31873
19.11000, 12.03247
19.12000, 15.58527
19.13000, 17.98401
19.14000, 19.16351
19.15000, 20.59778
19.16000, 21.14777
19.17000, 21.80737
19.18000, 24.30304
19.19000, 24.98334
19.20000, 28.25885
19.21000, 29.44458
19.22000, 29.20758
19.23000, 27.58289
19.24000, 25.04773
19.25000, 21.50684
19.26000, 19.68561
19.27000, 19.48224
19.28000, 20.03455
19.29000, 20.46533
19.30000, 18.87598
19.31000, 20.14941
19.32000, 26.02325
19.33000, 34.57269
19.34000, 36.96411
19.35000, 35.00781
19.36000, 37.14874
19.37000, 40.45398
19.38000, 40.66711
19.39000, 45.32721
19.40000, 52.20923
19.41000, 58.08942
19.42000, 61.49396
19.43000, 66.23145
19.44000, 72.21509
19.45000, 76.88202
19.46000, 84.82703
19.47000, 93.17743
19.48000, 101.5558
19.49000, 110.5975
19.50000, 119.9603
19.51000, 128.3904
19.52000, 129.7054
19.53000, 129.0908
19.54000, 134.9662
19.55000, 141.7069
19.56000, 149.7988
19.57000, 151.6138
19.58000, 153.7861
19.59000, 155.6624
19.60000, 158.5871
19.61000, 157.2758
19.62000, 152.6938
19.63000, 148.5399
19.64000, 141.6832
19.65000, 132.0307
19.66000, 123.6123
19.67000, 115.4924
19.68000, 111.3945
19.69000, 104.5548
19.70000, 91.96851
19.71000, 77.44824
19.72000, 67.44226
19.73000, 62.83826
19.74000, 60.99762
19.75000, 56.27802
19.76000, 48.22156
19.77000, 40.79523
19.78000, 36.74695
19.79000, 37.47083
19.80000, 35.19672
19.81000, 30.83875
19.82000, 25.49487
19.83000, 22.35303
19.84000, 16.24542
19.85000, 11.52692
19.86000, 10.44263
19.87000, 8.765381
19.88000, 9.575378
19.89000, 7.802490
19.90000, 4.121948
19.91000, 0.8654170
19.92000, 5.059998
19.93000, 6.379639
19.94000, 7.315308
19.95000, 6.387146
19.96000, 2.697693
19.97000, 0.3568730
19.98000, 0.6670530
19.99000, 3.564880
20.00000, 6.281860
20.01000, 5.063843
20.02000, 7.454956
20.03000, 11.37103
20.04000, 11.18420
20.05000, 11.63666
20.06000, 11.81836
20.07000, 10.01727
20.08000, 11.15936
20.09000, 5.183777
20.10000, 1.605469
20.11000, 1.392090
20.12000, 2.247681
20.13000, 4.445618
20.14000, 5.873718
20.15000, 5.183411
20.16000, 4.633301
20.17000, 6.624146
20.18000, 8.204163
20.19000, 2.311340
20.20000, 3.343384
20.21000, 6.783447
20.22000, 11.39905
20.23000, 15.13940
20.24000, 16.30914
20.25000, 21.16589
20.26000, 24.89642
20.27000, 26.03839
20.28000, 27.21735
20.29000, 34.30957
20.30000, 44.72180
20.31000, 52.07416
20.32000, 58.51410
20.33000, 63.40527
20.34000, 70.07806
20.35000, 81.02618
20.36000, 91.39368
20.37000, 101.7654
20.38000, 110.1766
20.39000, 120.3269
20.40000, 135.3062
20.41000, 147.7673
20.42000, 159.9828
20.43000, 166.5380
20.44000, 173.9707
20.45000, 182.7166
20.46000, 186.5380
20.47000, 195.5329
20.48000, 205.8704
20.49000, 210.8785
20.50000, 213.3541
20.51000, 214.4982
20.52000, 215.6899
20.53000, 211.2375
20.54000, 205.6604
20.55000, 197.9648
20.56000, 192.2219
20.57000, 186.1340
20.58000, 177.8237
20.59000, 168.9738
20.60000, 158.7415
20.61000, 149.3552
20.62000, 140.6108
20.63000, 134.4366
20.64000, 126.7550
20.65000, 120.0646
20.66000, 112.3373
20.67000, 102.9041
20.68000, 98.20520
20.69000, 91.73132
20.70000, 83.45459
20.71000, 75.72211
20.72000, 68.79382
20.73000, 63.80457
20.74000, 57.96460
20.75000, 57.28973
20.76000, 53.76508
20.77000, 45.37360
20.78000, 42.92523
20.79000, 45.53015
20.80000, 44.79114
20.81000, 44.39038
20.82000, 44.28882
20.83000, 47.68152
20.84000, 49.25024
20.85000, 47.25153
20.86000, 49.17181
20.87000, 49.71301
20.88000, 46.38275
20.89000, 45.60864
20.90000, 49.01562
20.91000, 48.44086
20.92000, 48.32123
20.93000, 51.32892
20.94000, 54.54181
20.95000, 52.57086
20.96000, 53.46411
20.97000, 57.99304
20.98000, 56.57697
20.99000, 56.17493
21.00000, 55.56970
21.01000, 52.11432
21.02000, 51.50397
21.03000, 48.53644
21.04000, 47.03870
21.05000, 51.33795
21.06000, 53.38043
21.07000, 52.12347
21.08000, 52.97382
21.09000, 56.68945
21.10000, 56.15875
21.11000, 49.99390
21.12000, 44.95654
21.13000, 45.06232
21.14000, 43.50726
21.15000, 39.04816
21.16000, 31.34631
21.17000, 25.66791
21.18000, 24.00861
21.19000, 24.71161
21.20000, 23.18835
21.21000, 23.66840
21.22000, 24.50293
21.23000, 20.72748
21.24000, 18.46753
21.25000, 18.07104
21.26000, 16.35181
21.27000, 19.92529
21.28000, 22.79285
21.29000, 22.09094
21.30000, 22.01404
21.31000, 27.28876
21.32000, 28.84229
21.33000, 26.71875
21.34000, 21.63556
21.35000, 17.05682
21.36000, 13.02582
21.37000, 6.919128
21.38000, 8.496643
21.39000, 14.64459
21.40000, 13.79382
21.41000, 13.40936
21.42000, 8.763306
21.43000, 4.957886
21.44000, 7.321350
21.45000, 9.095520
21.46000, 7.711365
21.47000, 5.475830
21.48000, 4.139038
21.49000, 2.733765
21.50000, 1.789001
21.51000, 1.855103
21.52000, 0.4920040
21.53000, 4.623657
21.54000, 6.473877
21.55000, 8.159790
21.56000, 10.28125
21.57000, 9.504456
21.58000, 6.612244
21.59000, 2.449707
21.60000, 0.6376950
21.61000, 2.156250
21.62000, 2.958374
21.63000, 2.194092
21.64000, 2.188416
21.65000, 2.177307
21.66000, 3.517822
21.67000, 2.723938
21.68000, 1.353333
21.69000, 2.078003
21.70000, 3.597351
21.71000, 5.598267
21.72000, 6.013855
21.73000, 3.472107
21.74000, 0.2950440
21.75000, 0.3707280
21.76000, 2.423096
21.77000, 2.565796
21.78000, 1.893555
21.79000, 8.3861999E-02
21.80000, 3.050781
21.81000, 3.010864
21.82000, 3.029846
21.83000, 9.483215
21.84000, 13.75049
21.85000, 14.96130
21.86000, 13.40094
21.87000, 15.01825
21.88000, 17.83936
21.89000, 20.52521
21.90000, 19.69476
21.91000, 14.69604
21.92000, 12.32709
21.93000, 12.97601
21.94000, 15.82458
21.95000, 16.39502
21.96000, 15.79510
21.97000, 14.39606
21.98000, 14.41278
21.99000, 17.53821
22.00000, 16.19952
22.01000, 11.79254
22.02000, 6.999390
22.03000, 2.517090
22.04000, 0.8385620
22.05000, 0.1107790
22.06000, 0.3616330
22.07000, 1.179138
22.08000, 6.860535
22.09000, 13.95972
22.10000, 16.69464
22.11000, 19.05151
22.12000, 20.25720
22.13000, 23.88477
22.14000, 29.02924
22.15000, 32.90143
22.16000, 36.04700
22.17000, 40.26068
22.18000, 45.66486
22.19000, 49.09381
22.20000, 49.12036
22.21000, 50.75293
22.22000, 54.52246
22.23000, 51.05286
22.24000, 46.16034
22.25000, 48.14905
22.26000, 46.93268
22.27000, 48.20593
22.28000, 47.39978
22.29000, 39.95441
22.30000, 33.56738
22.31000, 31.80646
22.32000, 28.18970
22.33000, 23.33228
22.34000, 22.90948
22.35000, 23.31982
22.36000, 24.01892
22.37000, 23.08124
22.38000, 15.87354
22.39000, 16.36554
22.40000, 17.43933
22.41000, 17.37299
22.42000, 16.29230
22.43000, 12.25323
22.44000, 12.32794
22.45000, 13.45331
22.46000, 13.45337
22.47000, 12.71417
22.48000, 10.66162
22.49000, 7.788879
22.50000, 10.37097
22.51000, 16.29004
22.52000, 23.36084
22.53000, 32.84802
22.54000, 42.26788
22.55000, 53.63141
22.56000, 66.23926
22.57000, 80.77808
22.58000, 101.5032
22.59000, 120.0822
22.60000, 135.0031
22.61000, 152.5577
22.62000, 172.0060
22.63000, 195.7972
22.64000, 215.3430
22.65000, 232.9225
22.66000, 251.3398
22.67000, 273.4168
22.68000, 304.7097
22.69000, 324.6556
22.70000, 343.5175
22.71000, 362.2546
22.72000, 377.0217
22.73000, 389.3154
22.74000, 395.1187
22.75000, 393.7216
22.76000, 393.0444
22.77000, 391.3571
22.78000, 383.6996
22.79000, 376.4144
22.80000, 372.8118
22.81000, 369.7253
22.82000, 365.4724
22.83000, 363.1761
22.84000, 366.1700
22.85000, 372.4937
22.86000, 383.4930
22.87000, 394.7693
22.88000, 405.4769
22.89000, 417.9293
22.90000, 430.6464
22.91000, 442.3180
22.92000, 454.9438
22.93000, 461.8297
22.94000, 472.1462
22.95000, 483.0533
22.96000, 497.4365
22.97000, 512.7413
22.98000, 522.7090
22.99000, 531.3325
23.00000, 535.7488
23.01000, 533.8087
23.02000, 529.5885
23.03000, 528.4899
23.04000, 524.1616
23.05000, 512.4532
23.06000, 496.8451
23.07000, 479.1870
23.08000, 460.6488
23.09000, 437.7809
23.10000, 417.0532
23.11000, 395.7854
23.12000, 373.8878
23.13000, 353.4003
23.14000, 330.4870
23.15000, 306.3718
23.16000, 282.8527
23.17000, 260.8715
23.18000, 238.8685
23.19000, 212.4688
23.20000, 186.8092
23.21000, 163.2567
23.22000, 142.8322
23.23000, 123.5410
23.24000, 107.1776
23.25000, 90.68958
23.26000, 78.43683
23.27000, 67.12488
23.28000, 51.19238
23.29000, 35.74182
23.30000, 26.19757
23.31000, 21.77643
23.32000, 14.58636
23.33000, 6.422485
23.34000, 2.166748
23.35000, 0.4848020
23.36000, 2.646790
23.37000, 5.922485
23.38000, 9.031494
23.39000, 5.076416
23.40000, 2.666321
23.41000, 1.431824
23.42000, 1.309937
23.43000, 2.239563
23.44000, 3.330872
23.45000, 3.827087
23.46000, 5.504150
23.47000, 3.808899
23.48000, 1.950745
23.49000, 0.3070070
23.50000, 2.796021
23.51000, 3.845825
23.52000, 0.1760860
23.53000, 2.114136
23.54000, 8.808105
23.55000, 15.35699
23.56000, 17.06097
23.57000, 22.27289
23.58000, 25.88977
23.59000, 30.50171
23.60000, 41.84161
23.61000, 54.44354
23.62000, 65.14160
23.63000, 77.19958
23.64000, 94.05658
23.65000, 114.1686
23.66000, 132.9847
23.67000, 152.2028
23.68000, 170.2458
23.69000, 188.7390
23.70000, 205.0082
23.71000, 221.4546
23.72000, 243.0760
23.73000, 262.0124
23.74000, 272.1288
23.75000, 283.5083
23.76000, 296.4509
23.77000, 303.2645
23.78000, 311.0872
23.79000, 314.1188
23.80000, 313.4797
23.81000, 316.4024
23.82000, 319.1633
23.83000, 323.0702
23.84000, 316.3801
23.85000, 308.6932
23.86000, 302.0522
23.87000, 298.1104
23.88000, 293.4497
23.89000, 290.3214
23.90000, 287.1339
23.91000, 287.8203
23.92000, 282.5884
23.93000, 277.5814
23.94000, 271.3319
23.95000, 265.1439
23.96000, 262.0818
23.97000, 258.5643
23.98000, 247.6978
23.99000, 238.6240
24.00000, 230.8998
24.01000, 213.5391
24.02000, 203.7255
24.03000, 199.2692
24.04000, 191.0339
24.05000, 180.5208
24.06000, 171.3548
24.07000, 161.1620
24.08000, 151.4157
24.09000, 144.5604
24.10000, 138.3201
24.11000, 130.8928
24.12000, 125.6182
24.13000, 122.3979
24.14000, 123.3549
24.15000, 122.5649
24.16000, 121.2070
24.17000, 122.2979
24.18000, 122.4016
24.19000, 124.2177
24.20000, 130.0847
24.21000, 133.8690
24.22000, 128.7722
24.23000, 117.8436
24.24000, 111.8741
24.25000, 112.0388
24.26000, 112.8475
24.27000, 109.4454
24.28000, 106.0804
24.29000, 102.0555
24.30000, 99.97290
24.31000, 99.46320
24.32000, 98.43372
24.33000, 95.01941
24.34000, 92.61115
24.35000, 90.53796
24.36000, 86.34998
24.37000, 83.14508
24.38000, 85.30750
24.39000, 81.86383
24.40000, 72.30731
24.41000, 65.21802
24.42000, 62.15173
24.43000, 65.14563
24.44000, 63.71667
24.45000, 60.06189
24.46000, 59.54327
24.47000, 51.16589
24.48000, 42.43152
24.49000, 31.34729
24.50000, 23.23029
24.51000, 23.37531
24.52000, 22.42560
24.53000, 17.29089
24.54000, 16.17627
24.55000, 13.92438
24.56000, 10.28333
24.57000, 11.09668
24.58000, 13.84235
24.59000, 10.12952
24.60000, 1.964478
24.61000, 0.2525020
24.62000, 1.962341
24.63000, 4.872864
24.64000, 4.094849
24.65000, 4.423828
24.66000, 5.413574
24.67000, 7.676147
24.68000, 7.450439
24.69000, 7.457703
24.70000, 3.211182
24.71000, 3.626099
24.72000, 5.677246
24.73000, 6.006287
24.74000, 5.820313
24.75000, 10.66669
24.76000, 19.85144
24.77000, 21.67462
24.78000, 20.25623
24.79000, 20.14526
24.80000, 18.28961
24.81000, 19.13141
24.82000, 19.30963
24.83000, 23.90826
24.84000, 28.74329
24.85000, 33.29974
24.86000, 42.64374
24.87000, 55.08331
24.88000, 64.25226
24.89000, 72.26257
24.90000, 86.41022
24.91000, 103.2489
24.92000, 121.2628
24.93000, 136.3043
24.94000, 156.1756
24.95000, 183.0543
24.96000, 203.1985
24.97000, 218.1831
24.98000, 236.4111
24.99000, 255.8265
25.00000, 270.6924
25.01000, 282.6796
25.02000, 290.7862
25.03000, 293.8292
25.04000, 294.3896
25.05000, 300.7776
25.06000, 301.2132
25.07000, 297.3779
25.08000, 298.1389
25.09000, 299.5850
25.10000, 296.4105
25.11000, 298.5139
25.12000, 297.3707
25.13000, 302.0212
25.14000, 308.3762
25.15000, 314.2534
25.16000, 319.8227
25.17000, 321.7895
25.18000, 323.1788
25.19000, 326.1415
25.20000, 324.1749
25.21000, 322.2934
25.22000, 324.9048
25.23000, 321.3822
25.24000, 319.7388
25.25000, 317.4534
25.26000, 317.5562
25.27000, 312.6390
25.28000, 302.9788
25.29000, 295.6129
25.30000, 290.5160
25.31000, 280.6541
25.32000, 273.1552
25.33000, 265.2484
25.34000, 252.2187
25.35000, 233.2720
25.36000, 219.3693
25.37000, 207.3917
25.38000, 195.6912
25.39000, 191.1087
25.40000, 182.7212
25.41000, 170.6588
25.42000, 166.9344
25.43000, 162.1171
25.44000, 153.9938
25.45000, 145.4695
25.46000, 135.9933
25.47000, 127.5171
25.48000, 117.1671
25.49000, 101.3121
25.50000, 88.14020
25.51000, 78.95837
25.52000, 68.48962
25.53000, 61.35791
25.54000, 58.74341
25.55000, 53.57501
25.56000, 47.60767
25.57000, 46.39642
25.58000, 42.96729
25.59000, 43.37134
25.60000, 43.88647
25.61000, 47.04370
25.62000, 54.68896
25.63000, 62.52936
25.64000, 71.15179
25.65000, 82.25330
25.66000, 90.42902
25.67000, 104.0279
25.68000, 119.7537
25.69000, 129.2037
25.70000, 137.1997
25.71000, 144.8519
25.72000, 153.9890
25.73000, 159.1763
25.74000, 163.5916
25.75000, 167.0703
25.76000, 175.7181
25.77000, 183.4986
25.78000, 185.9656
25.79000, 178.6304
25.80000, 172.8751
25.81000, 174.7559
25.82000, 170.2910
25.83000, 164.1331
25.84000, 163.0164
25.85000, 164.1095
25.86000, 159.8976
25.87000, 150.6059
25.88000, 142.6158
25.89000, 138.9915
25.90000, 135.2310
25.91000, 133.3843
25.92000, 123.6373
25.93000, 110.2214
25.94000, 98.23981
25.95000, 87.94342
25.96000, 83.59521
25.97000, 76.96906
25.98000, 64.96521
25.99000, 58.38940
26.00000, 55.81689
26.01000, 54.60144
26.02000, 49.55518
26.03000, 42.41510
26.04000, 39.10144
26.05000, 36.52917
26.06000, 34.24573
26.07000, 28.57410
26.08000, 23.79218
26.09000, 20.45331
26.10000, 15.68781
26.11000, 14.11816
26.12000, 11.17926
26.13000, 11.00861
26.14000, 11.75348
26.15000, 10.95343
26.16000, 12.50934
26.17000, 13.85327
26.18000, 12.97821
26.19000, 12.87714
26.20000, 10.18610
26.21000, 9.770935
26.22000, 6.511719
26.23000, 11.19232
26.24000, 7.825134
26.25000, 1.061890
26.26000, 1.141602
26.27000, 0.5877690
26.28000, 1.443970
26.29000, 0.8664550
26.30000, 1.888306
26.31000, 0.6087650
26.32000, 2.033264
26.33000, 10.96320
26.34000, 14.32562
26.35000, 18.81348
26.36000, 14.41858
26.37000, 4.658691
26.38000, 1.082031
26.39000, 0.1475220
26.40000, 0.8583980
26.41000, 8.729126
26.42000, 13.53174
26.43000, 11.11029
26.44000, 12.84473
26.45000, 13.74597
26.46000, 18.79425
26.47000, 25.29034
26.48000, 17.98737
26.49000, 10.11621
26.50000, 4.463928
26.51000, 2.732666
26.52000, 5.508179
26.53000, 8.545166
26.54000, 14.61597
26.55000, 19.28070
26.56000, 23.34235
26.57000, 32.06268
26.58000, 42.87115
26.59000, 50.64276
26.60000, 58.39221
26.61000, 61.79150
26.62000, 64.66949
26.63000, 70.49420
26.64000, 76.83289
26.65000, 80.01819
26.66000, 84.56543
26.67000, 90.28217
26.68000, 89.92621
26.69000, 93.48560
26.70000, 98.48792
26.71000, 100.5023
26.72000, 98.40063
26.73000, 100.7667
26.74000, 101.4167
26.75000, 104.4676
26.76000, 106.4292
26.77000, 105.2858
26.78000, 99.89508
26.79000, 98.89227
26.80000, 95.03119
26.81000, 86.98297
26.82000, 78.45258
26.83000, 72.46893
26.84000, 66.66003
26.85000, 61.59601
26.86000, 59.34576
26.87000, 60.06128
26.88000, 57.31561
26.89000, 51.56873
26.90000, 47.92963
26.91000, 42.02527
26.92000, 40.08966
26.93000, 39.72388
26.94000, 37.68286
26.95000, 35.68457
26.96000, 33.93903
26.97000, 27.33826
26.98000, 18.99829
26.99000, 9.532898
27.00000, 2.859192
27.01000, 4.988403
27.02000, 2.694824
27.03000, 2.921204
27.04000, 7.209473
27.05000, 10.14948
27.06000, 8.957520
27.07000, 8.723145
27.08000, 6.215210
27.09000, 5.398804
27.10000, 11.72174
27.11000, 20.75128
27.12000, 17.95142
27.13000, 14.02423
27.14000, 17.37561
27.15000, 17.43054
27.16000, 14.64819
27.17000, 10.58228
27.18000, 11.26611
27.19000, 14.37543
27.20000, 12.01642
27.21000, 9.199829
27.22000, 6.028992
27.23000, 3.160583
27.24000, 1.274841
27.25000, 1.313416
27.26000, 3.094299
27.27000, 2.978760
27.28000, 1.937317
27.29000, 4.352539
27.30000, 5.789368
27.31000, 3.067383
27.32000, 0.1331790
27.33000, 4.567627
27.34000, 9.971985
27.35000, 12.71295
27.36000, 13.98944
27.37000, 8.822388
27.38000, 5.850952
27.39000, 4.595093
27.40000, 5.117676
27.41000, 3.571838
27.42000, 2.216431
27.43000, 4.415527
27.44000, 5.943115
27.45000, 7.898071
27.46000, 10.81482
27.47000, 10.50012
27.48000, 7.347290
27.49000, 5.868896
27.50000, 5.7495002E-02
27.51000, 1.477356
27.52000, 5.199402
27.53000, 0.3637080
27.54000, 1.273743
27.55000, 4.237305
27.56000, 5.266418
27.57000, 3.794983
27.58000, 5.216003
27.59000, 8.454224
27.60000, 19.11426
27.61000, 24.16223
27.62000, 26.36804
27.63000, 28.52161
27.64000, 34.70050
27.65000, 46.16461
27.66000, 56.59259
27.67000, 67.70831
27.68000, 82.81696
27.69000, 103.6813
27.70000, 117.0215
27.71000, 131.0588
27.72000, 152.5774
27.73000, 172.5862
27.74000, 191.1888
27.75000, 208.9468
27.76000, 224.8726
27.77000, 235.3956
27.78000, 246.2916
27.79000, 258.8804
27.80000, 268.6649
27.81000, 278.4478
27.82000, 281.8071
27.83000, 285.1412
27.84000, 285.5174
27.85000, 284.1558
27.86000, 279.4792
27.87000, 275.1492
27.88000, 271.6917
27.89000, 266.1069
27.90000, 259.2545
27.91000, 257.5199
27.92000, 254.4895
27.93000, 252.3553
27.94000, 247.9713
27.95000, 238.0093
27.96000, 232.6488
27.97000, 231.5466
27.98000, 228.8830
27.99000, 222.5689
28.00000, 215.7681
28.01000, 208.5588
28.02000, 201.7950
28.03000, 191.6536
28.04000, 185.5736
28.05000, 180.2031
28.06000, 163.0712
28.07000, 145.0926
28.08000, 130.9214
28.09000, 119.4447
28.10000, 111.3015
28.11000, 101.3727
28.12000, 91.88538
28.13000, 83.54547
28.14000, 75.67303
28.15000, 72.90717
28.16000, 67.06165
28.17000, 55.52051
28.18000, 50.03186
28.19000, 52.02979
28.20000, 50.98511
28.21000, 47.04895
28.22000, 42.69238
28.23000, 36.39911
28.24000, 31.19116
28.25000, 30.99670
28.26000, 31.57574
28.27000, 33.92010
28.28000, 33.26697
28.29000, 29.81018
28.30000, 26.81995
28.31000, 22.33801
28.32000, 19.81146
28.33000, 22.02838
28.34000, 17.31171
28.35000, 12.71045
28.36000, 11.58661
28.37000, 17.42926
28.38000, 22.04321
28.39000, 20.98566
28.40000, 17.03058
28.41000, 16.67487
28.42000, 19.73566
28.43000, 21.71252
28.44000, 26.71759
28.45000, 28.27747
28.46000, 24.18903
28.47000, 25.13647
28.48000, 24.39630
28.49000, 16.93945
28.50000, 13.87531
28.51000, 17.93903
28.52000, 19.65405
28.53000, 20.49530
28.54000, 21.33344
28.55000, 21.94708
28.56000, 20.24323
28.57000, 20.92004
28.58000, 23.24042
28.59000, 27.51587
28.60000, 24.96259
28.61000, 23.28320
28.62000, 24.19080
28.63000, 26.65869
28.64000, 25.53314
28.65000, 25.07916
28.66000, 23.46783
28.67000, 24.09045
28.68000, 19.90436
28.69000, 18.70587
28.70000, 18.84186
28.71000, 17.25311
28.72000, 17.22833
28.73000, 15.62463
28.74000, 10.89771
28.75000, 7.896179
28.76000, 10.10944
28.77000, 10.17072
28.78000, 6.759216
28.79000, 6.086548
28.80000, 6.320618
28.81000, 4.607239
28.82000, 3.348450
28.83000, 2.060303
28.84000, 6.593811
28.85000, 10.07483
28.86000, 9.121460
28.87000, 6.210815
28.88000, 6.074768
28.89000, 6.802307
28.90000, 2.467529
28.91000, 0.6796880
28.92000, 2.323303
28.93000, 2.258301
28.94000, 2.786438
28.95000, 2.700745
28.96000, 3.083313
28.97000, 2.946045
28.98000, 1.700439
28.99000, 3.524658
29.00000, 1.874512
29.01000, 5.332825
29.02000, 3.089966
29.03000, 0.9828490
29.04000, 3.257263
29.05000, 4.737427
29.06000, 8.027100
29.07000, 8.051025
29.08000, 6.376160
29.09000, 7.264648
29.10000, 6.186951
29.11000, 2.615356
29.12000, 2.726196
29.13000, 1.962646
29.14000, 6.429382
29.15000, 9.304810
29.16000, 12.44189
29.17000, 12.63782
29.18000, 14.21893
29.19000, 19.35577
29.20000, 19.55853
29.21000, 21.32794
29.22000, 23.72723
29.23000, 26.74628
29.24000, 30.60022
29.25000, 37.71991
29.26000, 42.58850
29.27000, 46.53088
29.28000, 47.70709
29.29000, 49.21008
29.30000, 52.83496
29.31000, 50.70581
29.32000, 50.64539
29.33000, 54.81488
29.34000, 52.52716
29.35000, 43.14941
29.36000, 35.93549
29.37000, 32.51740
29.38000, 35.73828
29.39000, 34.67297
29.40000, 34.04663
29.41000, 36.55719
29.42000, 34.29749
29.43000, 35.81689
29.44000, 32.56421
29.45000, 24.74750
29.46000, 22.48560
29.47000, 24.12360
29.48000, 26.01862
29.49000, 21.64960
29.50000, 19.06946
29.51000, 21.31635
29.52000, 23.96509
29.53000, 24.96887
29.54000, 23.99255
29.55000, 23.56622
29.56000, 25.18188
29.57000, 27.05261
29.58000, 29.17523
29.59000, 27.97583
29.60000, 28.45050
29.61000, 32.31812
29.62000, 37.00970
29.63000, 39.23242
29.64000, 45.17920
29.65000, 49.57410
29.66000, 53.46710
29.67000, 59.68915
29.68000, 65.51013
29.69000, 69.54559
29.70000, 73.98407
29.71000, 80.67877
29.72000, 90.94330
29.73000, 93.44257
29.74000, 92.53815
29.75000, 95.81543
29.76000, 98.06293
29.77000, 94.39673
29.78000, 88.60596
29.79000, 84.40619
29.80000, 82.74902
29.81000, 78.64404
29.82000, 70.22906
29.83000, 66.73407
29.84000, 68.11218
29.85000, 69.84143
29.86000, 69.48181
29.87000, 64.82220
29.88000, 62.60162
29.89000, 59.71124
29.90000, 55.76538
29.91000, 53.34363
29.92000, 50.34790
29.93000, 46.70862
29.94000, 44.44928
29.95000, 35.75000
29.96000, 31.66498
29.97000, 31.11584
29.98000, 35.84180
29.99000, 37.15881
30.00000, 37.43475
30.01000, 38.48285
30.02000, 39.68298
30.03000, 33.74280
30.04000, 28.62408
30.05000, 19.61346
30.06000, 15.63794
30.07000, 19.22455
30.08000, 16.82111
30.09000, 13.12299
30.10000, 12.98041
30.11000, 11.07141
30.12000, 9.516235
30.13000, 7.629150
30.14000, 5.078552
30.15000, 7.249939
30.16000, 7.700256
30.17000, 8.326050
30.18000, 11.15460
30.19000, 12.38617
30.20000, 14.73907
30.21000, 14.51892
30.22000, 13.37793
30.23000, 13.34833
30.24000, 15.81335
30.25000, 17.20172
30.26000, 18.83905
30.27000, 15.29907
30.28000, 15.52783
30.29000, 20.05731
30.30000, 19.89099
30.31000, 18.35638
30.32000, 21.60840
30.33000, 24.48022
30.34000, 27.25299
30.35000, 25.50311
30.36000, 24.06049
30.37000, 27.00580
30.38000, 25.61353
30.39000, 29.05176
30.40000, 34.94830
30.41000, 36.02850
30.42000, 40.99719
30.43000, 46.50433
30.44000, 48.12488
30.45000, 48.60699
30.46000, 50.46771
30.47000, 55.52179
30.48000, 59.23444
30.49000, 65.06451
30.50000, 67.49512
30.51000, 70.21716
30.52000, 78.41187
30.53000, 87.91797
30.54000, 91.26068
30.55000, 94.26892
30.56000, 101.6926
30.57000, 104.6840
30.58000, 96.94073
30.59000, 93.19507
30.60000, 93.90790
30.61000, 92.21033
30.62000, 87.61615
30.63000, 80.59375
30.64000, 74.33575
30.65000, 74.24921
30.66000, 70.84735
30.67000, 64.16400
30.68000, 59.94519
30.69000, 56.87592
30.70000, 50.57025
30.71000, 45.48199
30.72000, 44.35437
30.73000, 38.16235
30.74000, 32.92987
30.75000, 29.74799
30.76000, 28.89062
30.77000, 28.70483
30.78000, 30.78265
30.79000, 30.16205
30.80000, 23.82703
30.81000, 18.06757
30.82000, 14.67468
30.83000, 12.84540
30.84000, 12.75464
30.85000, 10.78650
30.86000, 7.091919
30.87000, 5.056946
30.88000, 5.155518
30.89000, 5.761719
30.90000, 0.8133540
30.91000, 2.666260
30.92000, 1.230225
30.93000, 0.2670900
30.94000, 1.684998
30.95000, 0.5733640
30.96000, 1.268616
30.97000, 2.782349
30.98000, 3.949463
30.99000, 2.290283
31.00000, 1.325195
31.01000, 3.690186
31.02000, 6.211060
31.03000, 9.785645
31.04000, 11.92566
31.05000, 19.14240
31.06000, 32.49878
31.07000, 44.95862
31.08000, 57.10516
31.09000, 68.98834
31.10000, 77.27301
31.11000, 81.56641
31.12000, 85.67535
31.13000, 92.80096
31.14000, 96.83618
31.15000, 99.00403
31.16000, 101.6685
31.17000, 105.2316
31.18000, 103.6564
31.19000, 104.9258
31.20000, 105.3760
31.21000, 101.7036
31.22000, 99.54303
31.23000, 96.88800
31.24000, 89.64978
31.25000, 86.44916
31.26000, 82.57019
31.27000, 77.98187
31.28000, 76.43622
31.29000, 75.08820
31.30000, 68.04987
31.31000, 63.39172
31.32000, 56.16431
31.33000, 55.83453
31.34000, 52.08435
31.35000, 46.82684
31.36000, 39.17133
31.37000, 37.60651
31.38000, 40.01099
31.39000, 39.14697
31.40000, 38.40350
31.41000, 36.12451
31.42000, 29.98309
31.43000, 25.25964
31.44000, 26.38367
31.45000, 25.79919
31.46000, 19.71851
31.47000, 14.57037
31.48000, 12.07239
31.49000, 10.67725
31.50000, 5.163696
31.51000, 0.6355590
31.52000, 4.745972
31.53000, 7.711548
31.54000, 6.931396
31.55000, 4.811218
31.56000, 0.9100950
31.57000, 1.526978
31.58000, 6.413452
31.59000, 11.80743
31.60000, 16.25287
31.61000, 22.42969
31.62000, 33.29108
31.63000, 39.94592
31.64000, 44.47620
31.65000, 53.73694
31.66000, 66.88312
31.67000, 77.69476
31.68000, 86.28888
31.69000, 94.87445
31.70000, 99.71948
31.71000, 103.8059
31.72000, 108.6618
31.73000, 115.4552
31.74000, 121.1540
31.75000, 128.2943
31.76000, 129.2499
31.77000, 129.8851
31.78000, 132.3337
31.79000, 134.5867
31.80000, 134.5381
31.81000, 128.5471
31.82000, 121.0494
31.83000, 119.1472
31.84000, 116.6823
31.85000, 110.2170
31.86000, 103.3911
31.87000, 100.4495
31.88000, 101.6834
31.89000, 103.3587
31.90000, 99.83447
31.91000, 98.65765
31.92000, 102.5443
31.93000, 104.1462
31.94000, 107.4026
31.95000, 114.1714
31.96000, 117.6997
31.97000, 123.1724
31.98000, 127.6824
31.99000, 131.5749
32.00000, 134.8887
32.01000, 143.6710
32.02000, 153.7976
32.03000, 164.4476
32.04000, 173.6511
32.05000, 182.9890
32.06000, 194.0521
32.07000, 209.0178
32.08000, 225.8727
32.09000, 239.7371
32.10000, 247.0828
32.11000, 253.1556
32.12000, 261.8780
32.13000, 271.7676
32.14000, 276.0290
32.15000, 280.8438
32.16000, 285.3795
32.17000, 283.6863
32.18000, 281.1087
32.19000, 274.7719
32.20000, 267.2664
32.21000, 258.7972
32.22000, 248.5243
32.23000, 233.5624
32.24000, 220.7017
32.25000, 212.6801
32.26000, 204.2221
32.27000, 199.3896
32.28000, 194.5674
32.29000, 190.1038
32.30000, 187.5656
32.31000, 188.3489
32.32000, 184.8452
32.33000, 178.0676
32.34000, 170.7534
32.35000, 165.8135
32.36000, 161.5613
32.37000, 157.6902
32.38000, 148.6906
32.39000, 138.9405
32.40000, 129.6447
32.41000, 120.1593
32.42000, 107.3173
32.43000, 92.90479
32.44000, 77.64868
32.45000, 66.80487
32.46000, 52.30652
32.47000, 43.57458
32.48000, 37.93298
32.49000, 26.61078
32.50000, 20.06592
32.51000, 19.06055
32.52000, 16.80249
32.53000, 14.73779
32.54000, 8.328369
32.55000, 2.426575
32.56000, 5.352783
32.57000, 2.977722
32.58000, 1.666077
32.59000, 2.103943
32.60000, 2.783813
32.61000, 5.621460
32.62000, 6.421143
32.63000, 4.991272
32.64000, 5.756897
32.65000, 4.188599
32.66000, 0.7716060
32.67000, 8.6914003E-02
32.68000, 1.644348
32.69000, 6.306885
32.70000, 7.420715
32.71000, 10.98169
32.72000, 14.69507
32.73000, 15.51337
32.74000, 16.00818
32.75000, 17.87042
32.76000, 18.85944
32.77000, 14.84485
32.78000, 13.00049
32.79000, 11.20135
32.80000, 11.12848
32.81000, 11.18390
32.82000, 8.713501
32.83000, 7.369385
32.84000, 8.408447
32.85000, 6.100830
32.86000, 5.641418
32.87000, 5.639282
32.88000, 5.354309
32.89000, 13.18756
32.90000, 23.31213
32.91000, 26.15686
32.92000, 29.47577
32.93000, 33.76294
32.94000, 38.53339
32.95000, 39.27698
32.96000, 33.24475
32.97000, 26.77075
32.98000, 24.00494
32.99000, 25.52234
33.00000, 19.51398
33.01000, 11.32770
33.02000, 6.529724
33.03000, 6.206909
33.04000, 7.236267
33.05000, 5.560791
33.06000, 5.796509
33.07000, 6.154358
33.08000, 6.818481
33.09000, 8.495728
33.10000, 8.623169
33.11000, 9.625671
33.12000, 10.54443
33.13000, 8.086243
33.14000, 3.763245
33.15000, 0.2364500
33.16000, 0.8917850
33.17000, 6.595154
33.18000, 5.036804
33.19000, 5.721436
33.20000, 7.469299
33.21000, 8.587280
33.22000, 6.830505
33.23000, 7.867676
33.24000, 9.420105
33.25000, 10.30267
33.26000, 13.33331
33.27000, 16.42810
33.28000, 17.07300
33.29000, 19.91406
33.30000, 26.09229
33.31000, 34.21387
33.32000, 38.06677
33.33000, 39.44861
33.34000, 43.30853
33.35000, 43.86072
33.36000, 39.90521
33.37000, 41.99744
33.38000, 42.37451
33.39000, 37.20886
33.40000, 32.83368
33.41000, 29.53192
33.42000, 26.99646
33.43000, 22.07904
33.44000, 21.75751
33.45000, 24.37000
33.46000, 24.18610
33.47000, 26.41858
33.48000, 27.61926
33.49000, 29.90485
33.50000, 32.42700
33.51000, 27.71625
33.52000, 27.54376
33.53000, 30.56506
33.54000, 30.92743
33.55000, 24.95752
33.56000, 23.01910
33.57000, 26.14618
33.58000, 26.38330
33.59000, 24.18347
33.60000, 22.72437
33.61000, 23.68372
33.62000, 22.93634
33.63000, 23.00372
33.64000, 20.04639
33.65000, 19.35474
33.66000, 14.57294
33.67000, 14.02698
33.68000, 16.00781
33.69000, 13.91547
33.70000, 7.661987
33.71000, 3.124207
33.72000, 2.706360
33.73000, 3.115173
33.74000, 2.181885
33.75000, 3.518311
33.76000, 4.864563
33.77000, 3.834961
33.78000, 0.4744260
33.79000, 0.5945430
33.80000, 4.273987
33.81000, 3.656433
33.82000, 1.823120
33.83000, 1.635864
33.84000, 4.961182
33.85000, 3.976563
33.86000, 2.082336
33.87000, 7.589478
33.88000, 14.82422
33.89000, 18.34796
33.90000, 25.18457
33.91000, 29.10712
33.92000, 33.94275
33.93000, 42.74121
33.94000, 51.12238
33.95000, 59.32361
33.96000, 68.82202
33.97000, 74.66132
33.98000, 75.97644
33.99000, 84.60248
34.00000, 88.27435
34.01000, 92.64612
34.02000, 98.73175
34.03000, 103.2273
34.04000, 103.0646
34.05000, 103.0259
34.06000, 99.77087
34.07000, 106.2639
34.08000, 107.2805
34.09000, 100.0401
34.10000, 91.81348
34.11000, 82.82074
34.12000, 77.55682
34.13000, 73.45868
34.14000, 69.87134
34.15000, 68.94983
34.16000, 62.67621
34.17000, 57.91327
34.18000, 60.59827
34.19000, 61.14905
34.20000, 55.77258
34.21000, 48.80292
34.22000, 51.50708
34.23000, 52.91095
34.24000, 54.91370
34.25000, 57.29608
34.26000, 60.35333
34.27000, 57.33740
34.28000, 54.03613
34.29000, 51.01172
34.30000, 48.39905
34.31000, 46.46411
34.32000, 44.30499
34.33000, 42.90051
34.34000, 36.64087
34.35000, 35.23083
34.36000, 34.01263
34.37000, 30.96918
34.38000, 27.07251
34.39000, 25.24146
34.40000, 21.03021
34.41000, 15.54163
34.42000, 11.57294
34.43000, 8.054749
34.44000, 10.70532
34.45000, 11.95569
34.46000, 5.629700
34.47000, 3.652649
34.48000, 5.203064
34.49000, 9.639221
34.50000, 9.870178
34.51000, 5.065674
34.52000, 1.699951
34.53000, 0.8921510
34.54000, 5.204590
34.55000, 6.961731
34.56000, 0.7005620
34.57000, 3.133179
34.58000, 3.246155
34.59000, 1.582520
34.60000, 0.8585820
34.61000, 1.602844
34.62000, 1.734375
34.63000, 3.612976
34.64000, 4.922974
34.65000, 0.1417240
34.66000, 3.381531
34.67000, 1.477783
34.68000, 3.146484
34.69000, 3.3813000E-02
34.70000, 4.363831
34.71000, 5.257996
34.72000, 2.897278
34.73000, 1.684509
34.74000, 2.749878
34.75000, 7.234680
34.76000, 8.024475
34.77000, 8.938232
34.78000, 10.36926
34.79000, 8.524048
34.80000, 9.547241
34.81000, 11.70282
34.82000, 16.02972
34.83000, 19.22308
34.84000, 23.10223
34.85000, 26.44476
34.86000, 25.04663
34.87000, 24.03784
34.88000, 26.30444
34.89000, 24.76434
34.90000, 26.73865
34.91000, 26.17322
34.92000, 22.36707
34.93000, 20.34839
34.94000, 24.92389
34.95000, 28.71362
34.96000, 29.43420
34.97000, 29.10901
34.98000, 29.01941
34.99000, 34.38477
35.00000, 43.75873
35.01000, 43.26965
35.02000, 45.16486
35.03000, 51.19971
35.04000, 52.81763
35.05000, 49.07513
35.06000, 47.22632
35.07000, 46.88507
35.08000, 50.84918
35.09000, 53.90662
35.10000, 53.02533
35.11000, 58.57739
35.12000, 62.96692
35.13000, 61.92365
35.14000, 58.31165
35.15000, 56.25903
35.16000, 59.12567
35.17000, 60.19562
35.18000, 64.97595
35.19000, 62.04443
35.20000, 55.09229
35.21000, 53.01843
35.22000, 51.31592
35.23000, 46.26862
35.24000, 42.70667
35.25000, 36.35797
35.26000, 32.39563
35.27000, 32.35162
35.28000, 30.81274
35.29000, 28.23627
35.30000, 29.90814
35.31000, 31.98505
35.32000, 26.97949
35.33000, 22.87537
35.34000, 29.41974
35.35000, 34.99359
35.36000, 33.33075
35.37000, 30.34814
35.38000, 25.72888
35.39000, 26.53394
35.40000, 26.56219
35.41000, 24.28479
35.42000, 23.20270
35.43000, 20.75183
35.44000, 17.16431
35.45000, 16.59314
35.46000, 17.38123
35.47000, 16.31250
35.48000, 15.18323
35.49000, 9.937195
35.50000, 8.747437
35.51000, 10.83405
35.52000, 13.80493
35.53000, 12.20514
35.54000, 13.59064
35.55000, 18.03442
35.56000, 19.57751
35.57000, 16.38092
35.58000, 17.07770
35.59000, 18.95477
35.60000, 21.05707
35.61000, 18.10498
35.62000, 14.05231
35.63000, 12.51392
35.64000, 12.79700
35.65000, 9.910278
35.66000, 5.904968
35.67000, 9.117920
35.68000, 12.98529
35.69000, 15.83301
35.70000, 14.59112
35.71000, 9.725525
35.72000, 8.206543
35.73000, 17.54382
35.74000, 22.17023
35.75000, 22.06104
35.76000, 17.10406
35.77000, 14.82727
35.78000, 12.47998
35.79000, 11.35773
35.80000, 9.788513
35.81000, 7.036377
35.82000, 9.302795
35.83000, 10.44763
35.84000, 6.737915
35.85000, 4.816895
35.86000, 0.3688960
35.87000, 3.207397
35.88000, 2.973694
35.89000, 3.381470
35.90000, 6.468384
35.91000, 3.197510
35.92000, 0.5174560
35.93000, 2.658447
35.94000, 7.019165
35.95000, 8.251221
35.96000, 2.759949
35.97000, 3.300415
35.98000, 4.285095
35.99000, 0.3372190
36.00000, 3.683289
36.01000, 1.866455
36.02000, 0.6749880
36.03000, 9.167419
36.04000, 13.65747
36.05000, 9.382080
36.06000, 12.48328
36.07000, 18.06812
36.08000, 19.86652
36.09000, 25.15045
36.10000, 30.23413
36.11000, 36.39539
36.12000, 40.94122
36.13000, 46.14862
36.14000, 56.50677
36.15000, 65.33850
36.16000, 69.91180
36.17000, 81.09076
36.18000, 89.28241
36.19000, 96.18805
36.20000, 97.02930
36.21000, 95.55811
36.22000, 97.73364
36.23000, 106.1817
36.24000, 112.8724
36.25000, 107.6157
36.26000, 100.7577
36.27000, 99.40717
36.28000, 94.64838
36.29000, 89.57928
36.30000, 81.07062
36.31000, 73.61871
36.32000, 71.85645
36.33000, 78.68182
36.34000, 79.56781
36.35000, 69.71552
36.36000, 58.31281
36.37000, 59.03473
36.38000, 58.87146
36.39000, 55.93280
36.40000, 55.29077
36.41000, 59.57343
36.42000, 71.05481
36.43000, 74.03094
36.44000, 74.36469
36.45000, 75.73615
36.46000, 81.57727
36.47000, 83.20514
36.48000, 84.49774
36.49000, 85.76038
36.50000, 84.11676
36.51000, 86.40375
36.52000, 86.36139
36.53000, 78.31970
36.54000, 78.29498
36.55000, 84.40631
36.56000, 81.28571
36.57000, 73.57178
36.58000, 70.94965
36.59000, 68.08221
36.60000, 57.77063
36.61000, 49.98975
36.62000, 50.66394
36.63000, 56.93896
36.64000, 56.15692
36.65000, 52.51154
36.66000, 50.54688
36.67000, 48.49811
36.68000, 49.18506
36.69000, 47.07587
36.70000, 45.76642
36.71000, 44.29376
36.72000, 40.90295
36.73000, 38.72992
36.74000, 32.07208
36.75000, 29.44739
36.76000, 31.36346
36.77000, 34.46844
36.78000, 37.63416
36.79000, 34.36926
36.80000, 32.74951
36.81000, 34.35236
36.82000, 34.81494
36.83000, 33.41846
36.84000, 32.28058
36.85000, 34.80377
36.86000, 36.91675
36.87000, 35.51263
36.88000, 32.00647
36.89000, 29.43915
36.90000, 33.50665
36.91000, 36.23206
36.92000, 32.90802
36.93000, 33.45428
36.94000, 35.60632
36.95000, 39.54034
36.96000, 42.14331
36.97000, 42.22424
36.98000, 46.60303
36.99000, 47.62134
37.00000, 47.44257
37.01000, 44.99896
37.02000, 41.97437
37.03000, 42.10461
37.04000, 46.19482
37.05000, 52.23633
37.06000, 54.31171
37.07000, 57.31335
37.08000, 61.23492
37.09000, 63.06067
37.10000, 61.46814
37.11000, 60.27466
37.12000, 58.85834
37.13000, 58.99933
37.14000, 58.94647
37.15000, 55.18506
37.16000, 53.87366
37.17000, 57.50476
37.18000, 60.16241
37.19000, 62.55243
37.20000, 66.18457
37.21000, 69.90405
37.22000, 77.74872
37.23000, 89.48419
37.24000, 96.21686
37.25000, 96.64893
37.26000, 96.77008
37.27000, 97.80170
37.28000, 95.76245
37.29000, 91.44751
37.30000, 84.35089
37.31000, 84.37250
37.32000, 83.27539
37.33000, 79.67059
37.34000, 72.37317
37.35000, 66.01093
37.36000, 64.62506
37.37000, 55.80554
37.38000, 44.98431
37.39000, 41.99432
37.40000, 42.13373
37.41000, 40.50049
37.42000, 36.57050
37.43000, 33.10394
37.44000, 30.81360
37.45000, 29.81866
37.46000, 31.76312
37.47000, 30.99786
37.48000, 27.98688
37.49000, 26.67438
37.50000, 31.61914
37.51000, 33.53424
37.52000, 32.69965
37.53000, 33.44446
37.54000, 39.99872
37.55000, 39.67419
37.56000, 35.08112
37.57000, 32.46136
37.58000, 30.29004
37.59000, 19.42303
37.60000, 16.68945
37.61000, 17.52014
37.62000, 15.33221
37.63000, 10.09674
37.64000, 10.81158
37.65000, 7.892883
37.66000, 4.223511
37.67000, 4.261536
37.68000, 0.8870850
37.69000, 4.055542
37.70000, 1.908813
37.71000, 1.625244
37.72000, 1.826660
37.73000, 1.287170
37.74000, 5.9448000E-02
37.75000, 0.7284550
37.76000, 5.026855
37.77000, 9.361633
37.78000, 13.78180
37.79000, 13.54047
37.80000, 4.832520
37.81000, 2.863098
37.82000, 10.73187
37.83000, 16.47717
37.84000, 19.69788
37.85000, 22.34290
37.86000, 17.43445
37.87000, 16.70129
37.88000, 19.68665
37.89000, 23.80829
37.90000, 22.73047
37.91000, 16.52008
37.92000, 11.93097
37.93000, 12.93768
37.94000, 14.82135
37.95000, 12.54016
37.96000, 9.772766
37.97000, 8.097717
37.98000, 1.200867
37.99000, 1.436584
38.00000, 2.526672
38.01000, 2.378540
38.02000, 0.4921880
38.03000, 3.328918
38.04000, 1.081787
38.05000, 0.1227420
38.06000, 1.751587
38.07000, 2.807251
38.08000, 0.4001460
38.09000, 2.229431
38.10000, 3.035095
38.11000, 4.732056
38.12000, 7.397339
38.13000, 9.097046
38.14000, 6.929016
38.15000, 3.830322
38.16000, 5.721069
38.17000, 9.620056
38.18000, 8.713379
38.19000, 9.007019
38.20000, 8.745972
38.21000, 8.429382
38.22000, 7.776001
38.23000, 12.02106
38.24000, 19.69940
38.25000, 17.67816
38.26000, 18.09766
38.27000, 25.35413
38.28000, 26.39319
38.29000, 21.90613
38.30000, 22.63861
38.31000, 20.77557
38.32000, 19.56036
38.33000, 16.77930
38.34000, 10.83069
38.35000, 5.292297
38.36000, 0.6879880
38.37000, 1.044861
38.38000, 1.978882
38.39000, 3.796509
38.40000, 9.901794
38.41000, 15.74127
38.42000, 19.72229
38.43000, 23.90442
38.44000, 28.65259
38.45000, 34.86023
38.46000, 39.58014
38.47000, 37.64233
38.48000, 40.53473
38.49000, 42.40326
38.50000, 39.21210
38.51000, 38.87732
38.52000, 42.17426
38.53000, 44.37018
38.54000, 46.79053
38.55000, 56.52423
38.56000, 59.34711
38.57000, 54.98199
38.58000, 55.28284
38.59000, 61.81598
38.60000, 62.99829
38.61000, 59.70685
38.62000, 62.79163
38.63000, 64.18878
38.64000, 70.04901
38.65000, 76.23541
38.66000, 72.91913
38.67000, 65.78699
38.68000, 61.57214
38.69000, 57.33148
38.70000, 48.64703
38.71000, 44.36475
38.72000, 39.85382
38.73000, 36.20294
38.74000, 34.65833
38.75000, 37.78790
38.76000, 39.10065
38.77000, 46.58563
38.78000, 50.75781
38.79000, 47.67615
38.80000, 37.87469
38.81000, 32.62750
38.82000, 37.50842
38.83000, 36.32855
38.84000, 31.25189
38.85000, 34.61035
38.86000, 34.05902
38.87000, 31.89191
38.88000, 29.43060
38.89000, 24.83350
38.90000, 25.11877
38.91000, 28.38019
38.92000, 26.14185
38.93000, 21.89252
38.94000, 13.60901
38.95000, 11.36841
38.96000, 14.19794
38.97000, 14.09729
38.98000, 12.17908
38.99000, 7.275085
39.00000, 0.8866580
39.01000, 3.604980
39.02000, 2.324768
39.03000, 3.957703
39.04000, 3.132874
39.05000, 1.296265
39.06000, 4.576782
39.07000, 4.355591
39.08000, 3.937500
39.09000, 6.507629
39.10000, 7.031982
39.11000, 6.675537
39.12000, 0.5617070
39.13000, 4.542419
39.14000, 2.950745
39.15000, 2.709290
39.16000, 3.569580
39.17000, 1.290100
39.18000, 10.62854
39.19000, 6.987244
39.20000, 0.7047120
39.21000, 5.577820
39.22000, 6.547058
39.23000, 10.20770
39.24000, 15.06238
39.25000, 15.51105
39.26000, 18.37897
39.27000, 21.58521
39.28000, 24.95349
39.29000, 27.12701
39.30000, 26.21173
39.31000, 19.65063
39.32000, 21.74377
39.33000, 21.46497
39.34000, 15.89343
39.35000, 9.674011
39.36000, 12.42780
39.37000, 12.77686
39.38000, 13.47900
39.39000, 10.89838
39.40000, 10.33282
39.41000, 7.379517
39.42000, 6.922363
39.43000, 8.051392
39.44000, 7.501648
39.45000, 6.012024
39.46000, 1.108582
39.47000, 3.521240
39.48000, 4.676147
39.49000, 5.060181
39.50000, 0.7313840
39.51000, 3.205383
39.52000, 3.866028
39.53000, 2.444885
39.54000, 0.9521480
39.55000, 3.415710
39.56000, 9.137695
39.57000, 13.92987
39.58000, 11.74896
39.59000, 10.86023
39.60000, 15.04858
39.61000, 18.59497
39.62000, 19.54498
39.63000, 22.30865
39.64000, 24.74445
39.65000, 25.95410
39.66000, 25.74579
39.67000, 19.62854
39.68000, 14.92633
39.69000, 11.27612
39.70000, 13.01892
39.71000, 13.04340
39.72000, 7.947876
39.73000, 7.514526
39.74000, 15.45148
39.75000, 18.05530
39.76000, 17.41504
39.77000, 13.64911
39.78000, 12.70312
39.79000, 10.03198
39.80000, 10.27686
39.81000, 9.083679
39.82000, 12.48950
39.83000, 14.89630
39.84000, 13.79608
39.85000, 10.76080
39.86000, 7.847595
39.87000, 6.481262
39.88000, 9.791931
39.89000, 9.772644
39.90000, 11.33130
39.91000, 14.33899
39.92000, 20.69849
39.93000, 27.57416
39.94000, 29.90167
39.95000, 29.76324
39.96000, 29.01978
39.97000, 24.46423
39.98000, 17.58167
39.99000, 15.02618
40.00000, 12.46350
40.01000, 8.232910
40.02000, 5.206360
40.03000, 6.002686
40.04000, 6.734009
40.05000, 8.908325
40.06000, 9.590637
40.07000, 8.683899
40.08000, 7.406250
40.09000, 6.287231
40.10000, 11.28839
40.11000, 21.43182
40.12000, 23.42041
40.13000, 28.36115
40.14000, 34.88586
40.15000, 43.85858
40.16000, 55.79077
40.17000, 67.02264
40.18000, 75.66107
40.19000, 92.45020
40.20000, 102.4069
40.21000, 105.2638
40.22000, 108.1116
40.23000, 108.2244
40.24000, 110.1942
40.25000, 113.7719
40.26000, 111.4907
40.27000, 111.7404
40.28000, 107.0370
40.29000, 102.7527
40.30000, 97.95435
40.31000, 85.36401
40.32000, 72.01630
40.33000, 64.01202
40.34000, 63.07605
40.35000, 58.89380
40.36000, 56.42151
40.37000, 52.35742
40.38000, 51.96436
40.39000, 50.64471
40.40000, 44.94385
40.41000, 45.57904
40.42000, 52.79358
40.43000, 52.08984
40.44000, 53.47339
40.45000, 56.10016
40.46000, 58.68097
40.47000, 64.05682
40.48000, 61.54083
40.49000, 66.49597
40.50000, 69.91504
40.51000, 72.01831
40.52000, 74.77863
40.53000, 75.20312
40.54000, 75.04755
40.55000, 74.28516
40.56000, 72.76178
40.57000, 72.86951
40.58000, 66.08234
40.59000, 60.31818
40.60000, 52.41528
40.61000, 46.58032
40.62000, 42.51746
40.63000, 32.32037
40.64000, 23.88782
40.65000, 23.04974
40.66000, 17.25116
40.67000, 10.95618
40.68000, 6.817200
40.69000, 10.60541
40.70000, 15.07690
40.71000, 6.707520
40.72000, 0.3486330
40.73000, 0.5310060
40.74000, 1.030823
40.75000, 2.174316
40.76000, 2.707764
40.77000, 4.468689
40.78000, 3.934692
40.79000, 3.342957
40.80000, 3.394165
40.81000, 3.227295
40.82000, 7.301514
40.83000, 0.3543700
40.84000, 7.159668
40.85000, 5.610840
40.86000, 4.271179
40.87000, 9.264587
40.88000, 13.86517
40.89000, 10.26984
40.90000, 2.285339
40.91000, 6.578491
40.92000, 1.171997
40.93000, 2.797119
40.94000, 4.664246
40.95000, 2.751404
40.96000, 3.179321
40.97000, 9.016296
40.98000, 17.98303
40.99000, 17.10883
41.00000, 18.80194
41.01000, 18.39404
41.02000, 15.94147
41.03000, 10.72595
41.04000, 4.922546
41.05000, 4.718384
41.06000, 7.517334
41.07000, 6.832581
41.08000, 11.94580
41.09000, 22.68530
41.10000, 22.85187
41.11000, 25.79266
41.12000, 31.00665
41.13000, 34.05072
41.14000, 36.58911
41.15000, 39.51550
41.16000, 36.71814
41.17000, 35.88196
41.18000, 37.85486
41.19000, 35.85004
41.20000, 33.29034
41.21000, 38.89380
41.22000, 44.85846
41.23000, 44.40228
41.24000, 42.63629
41.25000, 36.40057
41.26000, 35.80206
41.27000, 35.79578
41.28000, 27.58490
41.29000, 25.03027
41.30000, 23.87726
41.31000, 15.89337
41.32000, 10.95276
41.33000, 4.110535
41.34000, 0.6671140
41.35000, 2.518921
41.36000, 4.741272
41.37000, 5.690613
41.38000, 15.35590
41.39000, 17.37408
41.40000, 24.77972
41.41000, 30.95361
41.42000, 41.73572
41.43000, 53.83588
41.44000, 53.33813
41.45000, 52.06061
41.46000, 51.46014
41.47000, 54.45581
41.48000, 55.47461
41.49000, 49.24152
41.50000, 44.52161
41.51000, 43.65076
41.52000, 41.44196
41.53000, 37.78308
41.54000, 36.84027
41.55000, 35.41064
41.56000, 32.02307
41.57000, 34.65424
41.58000, 35.76038
41.59000, 38.80072
41.60000, 40.91925
41.61000, 46.75891
41.62000, 46.89813
41.63000, 38.10101
41.64000, 33.56903
41.65000, 33.15814
41.66000, 40.83240
41.67000, 49.56665
41.68000, 48.71814
41.69000, 50.86969
41.70000, 56.71936
41.71000, 56.40222
41.72000, 59.52612
41.73000, 62.66815
41.74000, 53.30231
41.75000, 48.72461
41.76000, 43.75897
41.77000, 39.97046
41.78000, 36.27997
41.79000, 34.39258
41.80000, 30.31531
41.81000, 26.99585
41.82000, 21.82593
41.83000, 20.31879
41.84000, 19.67432
41.85000, 19.07745
41.86000, 18.83667
41.87000, 18.17206
41.88000, 19.52460
41.89000, 20.13409
41.90000, 12.70276
41.91000, 6.347412
41.92000, 7.603333
41.93000, 10.01001
41.94000, 12.42828
41.95000, 20.44055
41.96000, 24.62689
41.97000, 29.61334
41.98000, 35.16479
41.99000, 40.15729
42.00000, 38.87579
42.01000, 41.67993
42.02000, 45.86560
42.03000, 42.14465
42.04000, 37.23877
42.05000, 31.37756
42.06000, 32.56708
42.07000, 40.93683
42.08000, 40.26154
42.09000, 40.74438
42.10000, 47.36194
42.11000, 43.71008
42.12000, 47.31946
42.13000, 53.89777
42.14000, 52.84131
42.15000, 48.34534
42.16000, 43.54791
42.17000, 37.29321
42.18000, 34.26050
42.19000, 32.48505
42.20000, 32.15161
42.21000, 31.33539
42.22000, 30.80865
42.23000, 31.97101
42.24000, 33.56085
42.25000, 34.54047
42.26000, 34.84644
42.27000, 31.04852
42.28000, 19.88873
42.29000, 26.48193
42.30000, 31.71826
42.31000, 33.20264
42.32000, 35.73712
42.33000, 34.90765
42.34000, 37.05426
42.35000, 36.56403
42.36000, 35.97183
42.37000, 41.07773
42.38000, 42.93463
42.39000, 38.48962
42.40000, 40.91083
42.41000, 40.60162
42.42000, 38.83484
42.43000, 35.24017
42.44000, 30.43933
42.45000, 25.93817
42.46000, 26.65335
42.47000, 26.29251
42.48000, 24.48825
42.49000, 25.32288
42.50000, 23.81705
42.51000, 13.82172
42.52000, 5.762207
42.53000, 1.236603
42.54000, 5.407196
42.55000, 6.369812
42.56000, 6.693909
42.57000, 6.530334
42.58000, 3.062103
42.59000, 4.969604
42.60000, 11.54333
42.61000, 12.35202
42.62000, 15.10675
42.63000, 15.06244
42.64000, 8.379089
42.65000, 10.29178
42.66000, 13.64740
42.67000, 11.04700
42.68000, 8.540649
42.69000, 12.66922
42.70000, 8.023804
42.71000, 1.388367
42.72000, 0.1009220
42.73000, 5.005341
42.74000, 12.20273
42.75000, 11.18103
42.76000, 5.204376
42.77000, 8.228699
42.78000, 11.05792
42.79000, 9.348206
42.80000, 4.205292
42.81000, 1.429382
42.82000, 8.999298
42.83000, 5.415192
42.84000, 6.272980
42.85000, 12.19067
42.86000, 12.51028
42.87000, 16.78488
42.88000, 22.33829
42.89000, 24.98764
42.90000, 22.94287
42.91000, 25.67435
42.92000, 30.69543
42.93000, 32.52029
42.94000, 30.08707
42.95000, 25.97275
42.96000, 23.58530
42.97000, 24.16968
42.98000, 19.50296
42.99000, 9.017120
43.00000, 0.8991090
43.01000, 1.819244
43.02000, 1.965698
43.03000, 1.105469
43.04000, 1.424133
43.05000, 1.623779
43.06000, 3.714417
43.07000, 4.678436
43.08000, 6.441284
43.09000, 5.363953
43.10000, 7.407471
43.11000, 8.427765
43.12000, 4.328888
43.13000, 9.419006
43.14000, 15.78586
43.15000, 16.74158
43.16000, 19.74802
43.17000, 18.29324
43.18000, 20.05731
43.19000, 22.85211
43.20000, 20.99866
43.21000, 17.51917
43.22000, 16.20117
43.23000, 17.21390
43.24000, 20.84802
43.25000, 22.80167
43.26000, 21.27295
43.27000, 24.67651
43.28000, 25.31177
43.29000, 23.12344
43.30000, 24.49902
43.31000, 18.17264
43.32000, 21.08200
43.33000, 24.10187
43.34000, 18.89917
43.35000, 19.63165
43.36000, 24.03986
43.37000, 23.98694
43.38000, 21.11603
43.39000, 19.35776
43.40000, 17.47794
43.41000, 17.55429
43.42000, 20.84442
43.43000, 16.85742
43.44000, 14.88998
43.45000, 21.11444
43.46000, 24.87039
43.47000, 22.85300
43.48000, 17.99112
43.49000, 15.56885
43.50000, 22.55014
43.51000, 25.21957
43.52000, 21.02353
43.53000, 16.84332
43.54000, 19.59479
43.55000, 22.11551
43.56000, 18.69669
43.57000, 14.34052
43.58000, 13.17389
43.59000, 11.24197
43.60000, 9.771729
43.61000, 15.20810
43.62000, 16.79642
43.63000, 15.68762
43.64000, 13.14081
43.65000, 9.647369
43.66000, 3.062439
43.67000, 1.538269
43.68000, 2.098297
43.69000, 8.408783
43.70000, 6.798523
43.71000, 5.383545
43.72000, 6.488831
43.73000, 14.56171
43.74000, 23.27588
43.75000, 31.38019
43.76000, 36.29770
43.77000, 41.78629
43.78000, 39.52252
43.79000, 35.18924
43.80000, 33.95233
43.81000, 27.42487
43.82000, 28.20877
43.83000, 31.35309
43.84000, 21.62384
43.85000, 16.25922
43.86000, 16.71143
43.87000, 13.96115
43.88000, 14.01224
43.89000, 13.79285
43.90000, 16.08438
43.91000, 24.01761
43.92000, 27.20486
43.93000, 26.89737
43.94000, 26.05527
43.95000, 22.71262
43.96000, 23.62131
43.97000, 21.10834
43.98000, 18.41476
43.99000, 18.46750
44.00000, 22.55560
44.01000, 20.70963
44.02000, 23.05643
44.03000, 21.06961
44.04000, 18.03110
44.05000, 13.27396
44.06000, 7.271118
44.07000, 7.052643
44.08000, 12.82651
44.09000, 7.689667
44.10000, 5.927155
44.11000, 10.83493
44.12000, 13.43900
44.13000, 18.86545
44.14000, 23.70419
44.15000, 18.71616
44.16000, 12.89755
44.17000, 10.02820
44.18000, 11.89816
44.19000, 8.115417
44.20000, 4.792328
44.21000, 9.355072
44.22000, 14.95731
44.23000, 15.29935
44.24000, 19.23218
44.25000, 25.38525
44.26000, 27.67456
44.27000, 21.52713
44.28000, 22.25510
44.29000, 24.26239
44.30000, 20.05997
44.31000, 20.22989
44.32000, 28.56912
44.33000, 28.92569
44.34000, 18.32556
44.35000, 21.32974
44.36000, 27.07822
44.37000, 27.07104
44.38000, 16.89816
44.39000, 9.397583
44.40000, 4.435333
44.41000, 0.3714600
44.42000, 3.8451999E-02
44.43000, 0.1864320
44.44000, 0.3446960
44.45000, 3.948883
44.46000, 8.618744
44.47000, 6.706177
44.48000, 2.688904
44.49000, 0.8424070
44.50000, 2.208252
44.51000, 3.315765
44.52000, 4.092194
44.53000, 5.326660
44.54000, 4.685272
44.55000, 3.096039
44.56000, 5.655579
44.57000, 9.126373
44.58000, 5.789429
44.59000, 3.500702
44.60000, 2.709930
44.61000, 4.563934
44.62000, 1.216034
44.63000, 0.1755680
44.64000, 2.033112
44.65000, 10.99426
44.66000, 13.24472
44.67000, 9.952484
44.68000, 13.03455
44.69000, 15.77493
44.70000, 13.04501
44.71000, 15.11316
44.72000, 19.41061
44.73000, 17.69431
44.74000, 13.36237
44.75000, 13.46780
44.76000, 14.50775
44.77000, 14.67664
44.78000, 6.118805
44.79000, 2.792877
44.80000, 9.375519
44.81000, 7.971375
44.82000, 3.841553
44.83000, 2.673401
44.84000, 1.598938
44.85000, 4.058380
44.86000, 4.808441
44.87000, 3.734070
44.88000, 4.427765
44.89000, 7.774048
44.90000, 11.55713
44.91000, 14.06769
44.92000, 19.98062
44.93000, 23.21805
44.94000, 28.85516
44.95000, 37.69122
44.96000, 39.76331
44.97000, 37.33835
44.98000, 33.03949
44.99000, 25.83688
45.00000, 26.79462
45.01000, 22.15970
45.02000, 15.49417
45.03000, 16.57950
45.04000, 24.26129
45.05000, 23.96829
45.06000, 17.19611
45.07000, 14.41513
45.08000, 20.81873
45.09000, 23.34610
45.10000, 16.52176
45.11000, 11.17117
45.12000, 9.897400
45.13000, 13.72284
45.14000, 13.08057
45.15000, 9.876526
45.16000, 11.88776
45.17000, 15.54929
45.18000, 23.40610
45.19000, 30.19321
45.20000, 28.04761
45.21000, 27.57935
45.22000, 33.00635
45.23000, 37.25671
45.24000, 37.71738
45.25000, 32.34143
45.26000, 31.71082
45.27000, 30.06052
45.28000, 23.55655
45.29000, 21.58002
45.30000, 19.91440
45.31000, 15.59460
45.32000, 16.23218
45.33000, 13.85016
45.34000, 11.90955
45.35000, 14.42029
45.36000, 12.65753
45.37000, 12.41318
45.38000, 17.74930
45.39000, 23.70288
45.40000, 21.20303
45.41000, 26.17313
45.42000, 32.97919
45.43000, 36.50421
45.44000, 36.59210
45.45000, 28.92801
45.46000, 24.83447
45.47000, 29.16141
45.48000, 29.84995
45.49000, 25.47501
45.50000, 17.14368
45.51000, 13.57889
45.52000, 12.23172
45.53000, 14.03314
45.54000, 16.37622
45.55000, 16.61295
45.56000, 19.92429
45.57000, 22.03928
45.58000, 18.17395
45.59000, 7.941315
45.60000, 4.663116
45.61000, 9.320648
45.62000, 10.27609
45.63000, 5.479675
45.64000, 2.045197
45.65000, 1.961182
45.66000, 5.765991
45.67000, 7.640594
45.68000, 8.501312
45.69000, 13.41434
45.70000, 15.92154
45.71000, 16.87274
45.72000, 11.87610
45.73000, 11.40457
45.74000, 15.12305
45.75000, 15.50519
45.76000, 20.91605
45.77000, 26.21149
45.78000, 26.55981
45.79000, 28.10724
45.80000, 30.17709
45.81000, 33.10666
45.82000, 31.87997
45.83000, 25.72723
45.84000, 22.07416
45.85000, 17.89514
45.86000, 17.32812
45.87000, 14.72314
45.88000, 4.624146
45.89000, 4.254822
45.90000, 5.758972
45.91000, 3.007751
45.92000, 1.917938
45.93000, 0.1983640
45.94000, 6.517975
45.95000, 9.996704
45.96000, 13.22360
45.97000, 21.06546
45.98000, 18.71167
45.99000, 13.31186
46.00000, 8.855286
46.01000, 7.202850
46.02000, 1.001587
46.03000, 1.173462
46.04000, 2.611267
46.05000, 5.309998
46.06000, 12.09097
46.07000, 13.73837
46.08000, 21.81128
46.09000, 28.62567
46.10000, 32.57037
46.11000, 37.57864
46.12000, 38.18539
46.13000, 31.59555
46.14000, 31.58417
46.15000, 35.60922
46.16000, 32.65973
46.17000, 29.07864
46.18000, 26.15817
46.19000, 17.67908
46.20000, 13.60751
46.21000, 9.969849
46.22000, 5.823975
46.23000, 1.745056
46.24000, 4.526031
46.25000, 2.982300
46.26000, 2.115082
46.27000, 8.000183
46.28000, 9.324921
46.29000, 2.052032
46.30000, 3.106781
46.31000, 5.556152
46.32000, 4.463257
46.33000, 6.417053
46.34000, 16.93161
46.35000, 24.66193
46.36000, 26.45401
46.37000, 27.56790
46.38000, 30.31360
46.39000, 35.32620
46.40000, 41.90759
46.41000, 38.29593
46.42000, 39.24313
46.43000, 34.40826
46.44000, 27.82440
46.45000, 26.99350
46.46000, 29.59662
46.47000, 27.80176
46.48000, 19.00992
46.49000, 12.51620
46.50000, 14.68762
46.51000, 15.87616
46.52000, 10.56992
46.53000, 9.715851
46.54000, 13.14102
46.55000, 13.63547
46.56000, 14.92419
46.57000, 17.32422
46.58000, 22.18164
46.59000, 24.05945
46.60000, 23.93585
46.61000, 19.64471
46.62000, 20.50006
46.63000, 27.88599
46.64000, 33.28558
46.65000, 30.76978
46.66000, 26.31372
46.67000, 30.42337
46.68000, 35.98083
46.69000, 41.87021
46.70000, 42.70248
46.71000, 32.67581
46.72000, 26.11627
46.73000, 25.48389
46.74000, 21.21075
46.75000, 23.03000
46.76000, 26.19876
46.77000, 24.33917
46.78000, 24.28452
46.79000, 24.87473
46.80000, 23.73697
46.81000, 22.83713
46.82000, 27.58099
46.83000, 26.60355
46.84000, 24.92102
46.85000, 27.63907
46.86000, 36.64404
46.87000, 39.95422
46.88000, 35.56897
46.89000, 35.22641
46.90000, 31.19543
46.91000, 32.48605
46.92000, 31.62802
46.93000, 28.61438
46.94000, 33.11234
46.95000, 33.71777
46.96000, 26.27231
46.97000, 22.43237
46.98000, 18.78229
46.99000, 11.97549
47.00000, 11.12909
47.01000, 9.909882
47.02000, 7.821625
47.03000, 10.06155
47.04000, 10.76035
47.05000, 7.099762
47.06000, 4.033813
47.07000, 5.251495
47.08000, 9.048798
47.09000, 7.437347
47.10000, 0.8280640
47.11000, 8.282715
47.12000, 10.62671
47.13000, 11.95212
47.14000, 14.82867
47.15000, 11.65756
47.16000, 8.514099
47.17000, 1.444305
47.18000, 3.065857
47.19000, 2.533905
47.20000, 2.988373
47.21000, 4.430939
47.22000, 12.34448
47.23000, 14.65259
47.24000, 7.175018
47.25000, 5.049408
47.26000, 5.488251
47.27000, 8.842743
47.28000, 8.499786
47.29000, 8.586243
47.30000, 10.97513
47.31000, 7.853485
47.32000, 6.756317
47.33000, 2.901642
47.34000, 4.504486
47.35000, 9.672821
47.36000, 11.56671
47.37000, 7.837158
47.38000, 6.575134
47.39000, 2.857605
47.40000, 1.921387
47.41000, 5.362946
47.42000, 0.2034910
47.43000, 1.465485
47.44000, 0.8357850
47.45000, 6.764191
47.46000, 12.54102
47.47000, 11.62250
47.48000, 13.75739
47.49000, 21.22241
47.50000, 21.43420
47.51000, 23.29095
47.52000, 22.84625
47.53000, 23.59097
47.54000, 30.85742
47.55000, 35.07449
47.56000, 30.50043
47.57000, 30.89426
47.58000, 31.18814
47.59000, 30.54602
47.60000, 24.88406
47.61000, 16.97540
47.62000, 16.73712
47.63000, 19.53333
47.64000, 22.22809
47.65000, 25.83466
47.66000, 22.64798
47.67000, 16.18326
47.68000, 18.62570
47.69000, 20.10345
47.70000, 20.99957
47.71000, 28.34641
47.72000, 31.45810
47.73000, 29.96991
47.74000, 28.69595
47.75000, 29.17667
47.76000, 31.05020
47.77000, 27.23978
47.78000, 32.02585
47.79000, 39.78259
47.80000, 49.03546
47.81000, 50.40683
47.82000, 50.43912
47.83000, 47.09274
47.84000, 47.14728
47.85000, 43.96930
47.86000, 39.33246
47.87000, 37.20050
47.88000, 37.28027
47.89000, 30.79160
47.90000, 31.66577
47.91000, 35.85583
47.92000, 33.32654
47.93000, 27.62268
47.94000, 28.03345
47.95000, 27.63269
47.96000, 23.96234
47.97000, 23.23755
47.98000, 20.45123
47.99000, 21.19397
48.00000, 26.12823
48.01000, 29.69730
48.02000, 34.42242
48.03000, 34.27692
48.04000, 31.22321
48.05000, 28.23352
48.06000, 21.99387
48.07000, 15.48117
48.08000, 15.73370
48.09000, 21.67755
48.10000, 23.89078
48.11000, 16.75760
48.12000, 16.94092
48.13000, 15.21591
48.14000, 14.66736
48.15000, 17.52591
48.16000, 17.61243
48.17000, 14.20880
48.18000, 12.20380
48.19000, 11.78992
48.20000, 10.31992
48.21000, 13.80194
48.22000, 16.40900
48.23000, 17.35605
48.24000, 14.97208
48.25000, 20.55826
48.26000, 30.57959
48.27000, 28.04712
48.28000, 25.74991
48.29000, 25.66000
48.30000, 28.92096
48.31000, 28.16669
48.32000, 27.86560
48.33000, 35.83939
48.34000, 37.07239
48.35000, 33.69388
48.36000, 22.79669
48.37000, 26.81573
48.38000, 37.80008
48.39000, 42.25476
48.40000, 39.48471
48.41000, 38.14401
48.42000, 45.69461
48.43000, 47.05457
48.44000, 47.01367
48.45000, 55.27103
48.46000, 52.61237
48.47000, 46.87170
48.48000, 39.48679
48.49000, 30.07846
48.50000, 32.33636
48.51000, 34.25726
48.52000, 29.84973
48.53000, 32.69507
48.54000, 35.14481
48.55000, 34.95602
48.56000, 29.57962
48.57000, 29.48407
48.58000, 32.11713
48.59000, 26.74451
48.60000, 26.68771
48.61000, 28.25827
48.62000, 29.36737
48.63000, 29.90826
48.64000, 29.05121
48.65000, 27.02139
48.66000, 31.36429
48.67000, 44.97128
48.68000, 41.02017
48.69000, 41.13583
48.70000, 45.84561
48.71000, 40.62146
48.72000, 35.10587
48.73000, 30.33057
48.74000, 27.64310
48.75000, 26.54141
48.76000, 32.49106
48.77000, 20.87903
48.78000, 16.86288
48.79000, 29.34543
48.80000, 34.84256
48.81000, 38.68326
48.82000, 33.67657
48.83000, 16.48682
48.84000, 13.97232
48.85000, 30.02875
48.86000, 36.07800
48.87000, 44.43039
48.88000, 54.38586
48.89000, 47.70114
48.90000, 37.71219
48.91000, 36.40399
48.92000, 42.84592
48.93000, 36.87759
48.94000, 28.15054
48.95000, 38.17368
48.96000, 40.91714
48.97000, 48.41071
48.98000, 53.19916
48.99000, 50.12766
49.00000, 46.68649
49.01000, 53.60995
49.02000, 59.84085
49.03000, 58.08026
49.04000, 46.50214
49.05000, 29.98990
49.06000, 26.39398
49.07000, 15.47440
49.08000, 23.13541
49.09000, 51.15952
49.10000, 80.18652
49.11000, 109.5854
49.12000, 83.63263
49.13000, 55.47971
49.14000, 47.63055
49.15000, 58.85724
49.16000, 0.4483030
49.17000, 0.4219970
49.18000, 0.0000000E+00
##END=



