##NAMES=Argesite
##RRUFFID=R130008
##IDEAL CHEMISTRY=(N^3-^H_4_)_7_Bi^3+^_3_Cl_16_
##LOCALITY=La Fossa crater, Vulcano, Aeolian Islands, Sicily, Italy
##OWNER=Francesco Demartin
##SOURCE=Francesco Demartin
##DESCRIPTION=Pale-yellow crystals up to 0.15 mm in length, associated with bismuthinite, adranosite, brontesite, demicheleite-(Br), demicheleite-(Cl), and panichiite. Data from Demartin et al (2012).
##DIFFRACTION SAMPLE DESCRIPTION=Single crystal, powder profile is calculated
##STATUS=The identification of this mineral is confirmed by single-crystal X-ray diffraction and chemical analysis.
##URL=rruff.info/R130008
##MEASURED CHEMISTRY=[(NH_4_)_6.29_K_0.91_Tl_0.06_]_Σ=7.26_Bi_2.93_(Cl_13.33_Br_2.37_I_0.11_)_Σ=15.81_
##CELL PARAMETERS=a: 13.093(1) b: 13.093(1) c: 102.682(9) alpha: 90 beta: 90 gamma: 120 volume: 15245 crystal system: hexagonal
0.000, 0.000
0.070, 0.000
0.140, 0.000
0.210, 0.000
0.280, 0.000
0.350, 0.000
0.420, 0.000
0.490, 0.000
0.560, 0.000
0.630, 0.000
0.700, 0.000
0.770, 0.000
0.840, 0.000
0.910, 0.000
0.980, 0.000
1.050, 0.000
1.120, 0.000
1.190, 0.000
1.260, 0.000
1.330, 0.000
1.400, 0.000
1.470, 0.000
1.540, 0.000
1.610, 0.000
1.680, 0.000
1.750, 0.000
1.820, 0.000
1.890, 0.000
1.960, 0.000
2.030, 0.000
2.100, 0.000
2.170, 0.000
2.240, 0.000
2.309, 0.000
2.379, 0.000
2.449, 0.000
2.519, 0.000
2.589, 0.000
2.659, 0.000
2.729, 0.000
2.799, 0.000
2.869, 0.000
2.939, 0.000
3.009, 0.000
3.079, 0.000
3.149, 0.000
3.219, 0.000
3.289, 0.000
3.359, 0.000
3.429, 0.000
3.499, 0.000
3.569, 0.000
3.639, 0.000
3.709, 0.000
3.779, 0.000
3.849, 0.000
3.919, 0.000
3.989, 0.000
4.059, 0.000
4.129, 0.000
4.199, 0.000
4.269, 0.000
4.339, 0.000
4.409, 0.000
4.479, 0.000
4.549, 0.000
4.619, 0.001
4.689, 0.005
4.759, 0.030
4.829, 0.141
4.899, 0.493
4.969, 1.284
5.039, 2.500
5.109, 3.635
5.179, 3.950
5.249, 3.206
5.319, 1.944
5.389, 0.881
5.459, 0.298
5.529, 0.075
5.599, 0.014
5.669, 0.002
5.739, 0.000
5.809, 0.000
5.879, 0.000
5.949, 0.000
6.019, 0.000
6.089, 0.000
6.159, 0.000
6.229, 0.000
6.299, 0.000
6.369, 0.000
6.439, 0.000
6.509, 0.000
6.579, 0.000
6.649, 0.000
6.719, 0.000
6.788, 0.000
6.858, 0.000
6.928, 0.000
6.998, 0.000
7.068, 0.000
7.138, 0.000
7.208, 0.000
7.278, 0.000
7.348, 0.000
7.418, 0.000
7.488, 0.000
7.558, 0.000
7.628, 0.000
7.698, 0.001
7.768, 0.003
7.838, 0.006
7.908, 0.010
7.978, 0.012
8.048, 0.014
8.118, 0.028
8.188, 0.097
8.258, 0.312
8.328, 0.781
8.398, 1.487
8.468, 2.143
8.538, 2.339
8.608, 1.931
8.678, 1.207
8.748, 0.571
8.818, 0.205
8.888, 0.055
8.958, 0.011
9.028, 0.002
9.098, 0.000
9.168, 0.000
9.238, 0.000
9.308, 0.000
9.378, 0.000
9.448, 0.000
9.518, 0.000
9.588, 0.000
9.658, 0.000
9.728, 0.000
9.798, 0.002
9.868, 0.017
9.938, 0.093
10.008, 0.385
10.078, 1.212
10.148, 2.908
10.218, 5.315
10.288, 7.403
10.358, 7.857
10.428, 6.354
10.498, 3.916
10.568, 1.839
10.638, 0.658
10.708, 0.179
10.778, 0.037
10.848, 0.006
10.918, 0.001
10.988, 0.000
11.058, 0.000
11.128, 0.000
11.198, 0.002
11.267, 0.007
11.337, 0.024
11.407, 0.063
11.477, 0.127
11.547, 0.196
11.617, 0.232
11.687, 0.211
11.757, 0.146
11.827, 0.078
11.897, 0.032
11.967, 0.010
12.037, 0.002
12.107, 0.000
12.177, 0.000
12.247, 0.000
12.317, 0.000
12.387, 0.000
12.457, 0.000
12.527, 0.000
12.597, 0.000
12.667, 0.000
12.737, 0.000
12.807, 0.000
12.877, 0.000
12.947, 0.000
13.017, 0.000
13.087, 0.001
13.157, 0.006
13.227, 0.039
13.297, 0.224
13.367, 1.074
13.437, 4.128
13.507, 12.439
13.577, 29.097
13.647, 52.632
13.717, 73.498
13.787, 79.186
13.857, 65.807
13.927, 42.202
13.997, 21.033
14.067, 8.938
14.137, 6.397
14.207, 13.406
14.277, 31.689
14.347, 59.995
14.417, 88.072
14.487, 100.000
14.557, 87.795
14.627, 59.596
14.697, 31.276
14.767, 12.689
14.837, 3.980
14.907, 0.966
14.977, 0.189
15.047, 0.082
15.117, 0.297
15.187, 1.206
15.257, 3.859
15.327, 9.660
15.397, 18.941
15.467, 29.144
15.537, 35.253
15.607, 33.587
15.677, 25.255
15.747, 15.029
15.816, 7.120
15.886, 2.731
15.956, 0.893
16.026, 0.284
16.096, 0.105
16.166, 0.045
16.236, 0.019
16.306, 0.007
16.376, 0.002
16.446, 0.003
16.516, 0.016
16.586, 0.095
16.656, 0.444
16.726, 1.612
16.796, 4.568
16.866, 10.089
16.936, 17.373
17.006, 23.326
17.076, 24.420
17.146, 19.936
17.216, 12.691
17.286, 6.301
17.356, 2.440
17.426, 0.737
17.496, 0.174
17.566, 0.034
17.636, 0.009
17.706, 0.010
17.776, 0.016
17.846, 0.019
17.916, 0.019
17.986, 0.014
18.056, 0.008
18.126, 0.005
18.196, 0.009
18.266, 0.046
18.336, 0.222
18.406, 0.847
18.476, 2.534
18.546, 5.943
18.616, 10.932
18.686, 15.785
18.756, 17.923
18.826, 16.065
18.896, 11.457
18.966, 6.602
19.036, 3.157
19.106, 1.303
19.176, 0.481
19.246, 0.161
19.316, 0.049
19.386, 0.020
19.456, 0.030
19.526, 0.079
19.596, 0.175
19.666, 0.305
19.736, 0.419
19.806, 0.452
19.876, 0.383
19.946, 0.255
20.016, 0.134
20.086, 0.057
20.156, 0.026
20.226, 0.040
20.295, 0.116
20.365, 0.306
20.435, 0.666
20.505, 1.194
20.575, 1.781
20.645, 2.224
20.715, 2.335
20.785, 2.070
20.855, 1.566
20.925, 1.038
20.995, 0.634
21.065, 0.380
21.135, 0.228
21.205, 0.137
21.275, 0.091
21.345, 0.091
21.415, 0.137
21.485, 0.212
21.555, 0.277
21.625, 0.291
21.695, 0.247
21.765, 0.172
21.835, 0.102
21.905, 0.055
21.975, 0.029
22.045, 0.017
22.115, 0.022
22.185, 0.077
22.255, 0.302
22.325, 1.047
22.395, 3.034
22.465, 7.176
22.535, 13.660
22.605, 20.778
22.675, 25.160
22.745, 24.213
22.815, 18.510
22.885, 11.246
22.955, 5.466
23.025, 2.264
23.095, 1.288
23.165, 2.144
23.235, 5.173
23.305, 11.148
23.375, 19.946
23.445, 29.127
23.515, 34.379
23.585, 32.591
23.655, 24.719
23.725, 14.980
23.795, 7.297
23.865, 2.985
23.935, 1.271
24.005, 0.868
24.075, 0.864
24.145, 0.827
24.215, 0.665
24.285, 0.476
24.355, 0.457
24.425, 0.897
24.495, 2.272
24.565, 5.262
24.635, 10.395
24.705, 17.226
24.774, 23.657
24.844, 26.636
24.914, 24.379
24.984, 18.029
25.054, 10.735
25.124, 5.147
25.194, 2.017
25.264, 0.723
25.334, 0.391
25.404, 0.483
25.474, 0.825
25.544, 1.434
25.614, 2.294
25.684, 3.170
25.754, 3.649
25.824, 3.458
25.894, 2.718
25.964, 1.824
26.034, 1.097
26.104, 0.621
26.174, 0.336
26.244, 0.171
26.314, 0.087
26.384, 0.057
26.454, 0.056
26.524, 0.065
26.594, 0.086
26.664, 0.181
26.734, 0.536
26.804, 1.520
26.874, 3.595
26.944, 6.939
27.014, 11.006
27.084, 14.668
27.154, 17.072
27.224, 18.210
27.294, 18.372
27.364, 17.410
27.434, 15.120
27.504, 12.126
27.574, 9.672
27.644, 8.429
27.714, 7.887
27.784, 7.073
27.854, 5.694
27.924, 4.565
27.994, 5.212
28.064, 9.166
28.134, 17.018
28.204, 27.236
28.274, 35.929
28.344, 38.851
28.414, 34.560
28.484, 25.523
28.554, 15.953
28.624, 8.793
28.694, 4.639
28.764, 2.666
28.834, 1.885
28.904, 1.702
28.974, 1.890
29.044, 2.362
29.114, 2.949
29.184, 3.345
29.253, 3.282
29.323, 2.757
29.393, 2.020
29.463, 1.340
29.533, 0.849
29.603, 0.541
29.673, 0.364
29.743, 0.271
29.813, 0.226
29.883, 0.211
29.953, 0.210
30.023, 0.215
30.093, 0.220
30.163, 0.228
30.233, 0.240
30.303, 0.274
30.373, 0.382
30.443, 0.664
30.513, 1.234
30.583, 2.136
30.653, 3.215
30.723, 4.083
30.793, 4.306
30.863, 3.737
30.933, 2.655
31.003, 1.541
31.073, 0.738
31.143, 0.323
31.213, 0.235
31.283, 0.447
31.353, 1.016
31.423, 1.980
31.493, 3.186
31.563, 4.239
31.633, 4.709
31.703, 4.446
31.773, 3.699
31.843, 2.926
31.913, 2.493
31.983, 2.471
32.053, 2.632
32.123, 2.630
32.193, 2.266
32.263, 1.627
32.333, 0.977
32.403, 0.566
32.473, 0.630
32.543, 1.602
32.613, 4.338
32.683, 9.865
32.753, 18.327
32.823, 27.742
32.893, 34.204
32.963, 34.347
33.033, 28.095
33.103, 18.733
33.173, 10.211
33.243, 4.608
33.313, 1.809
33.383, 0.728
33.453, 0.394
33.523, 0.291
33.593, 0.233
33.663, 0.178
33.733, 0.132
33.802, 0.116
33.872, 0.158
33.942, 0.311
34.012, 0.682
34.082, 1.501
34.152, 3.205
34.222, 6.375
34.292, 11.326
34.362, 17.381
34.432, 22.538
34.502, 24.392
34.572, 21.908
34.642, 16.339
34.712, 10.219
34.782, 5.529
34.852, 2.812
34.922, 1.644
34.992, 1.542
35.062, 2.467
35.132, 4.698
35.202, 8.243
35.272, 12.230
35.342, 14.992
35.412, 15.089
35.482, 12.455
35.552, 8.446
35.622, 4.756
35.692, 2.344
35.762, 1.264
35.832, 1.164
35.902, 1.775
35.972, 3.060
36.042, 5.052
36.112, 7.606
36.182, 10.298
36.252, 12.592
36.322, 14.122
36.392, 14.955
36.462, 15.649
36.532, 16.875
36.602, 18.634
36.672, 19.857
36.742, 19.136
36.812, 16.043
36.882, 11.619
36.952, 7.535
37.022, 4.870
37.092, 3.623
37.162, 3.117
37.232, 2.687
37.302, 2.087
37.372, 1.466
37.442, 1.109
37.512, 1.228
37.582, 1.899
37.652, 3.046
37.722, 4.395
37.792, 5.499
37.862, 5.921
37.932, 5.510
38.002, 4.487
38.072, 3.274
38.142, 2.232
38.212, 1.531
38.281, 1.187
38.351, 1.163
38.421, 1.434
38.491, 1.968
38.561, 2.639
38.631, 3.182
38.701, 3.302
38.771, 2.897
38.841, 2.160
38.911, 1.477
38.981, 1.239
39.051, 1.723
39.121, 3.032
39.191, 4.982
39.261, 7.038
39.331, 8.528
39.401, 9.039
39.471, 8.617
39.541, 7.578
39.611, 6.216
39.681, 4.739
39.751, 3.361
39.821, 2.287
39.891, 1.611
39.961, 1.262
40.031, 1.083
40.101, 0.936
40.171, 0.758
40.241, 0.556
40.311, 0.386
40.381, 0.332
40.451, 0.542
40.521, 1.287
40.591, 2.930
40.661, 5.680
40.731, 9.179
40.801, 12.322
40.871, 13.768
40.941, 12.925
41.011, 10.537
41.081, 8.240
41.151, 7.437
41.221, 8.404
41.291, 10.196
41.361, 11.344
41.431, 10.867
41.501, 8.887
41.571, 6.394
41.641, 4.477
41.711, 3.744
41.781, 4.289
41.851, 5.974
41.921, 8.662
41.991, 12.159
42.061, 15.911
42.131, 18.796
42.201, 19.510
42.271, 17.466
42.341, 13.367
42.411, 8.789
42.481, 5.143
42.551, 2.976
42.621, 2.032
42.691, 1.731
42.760, 1.579
42.830, 1.333
42.900, 0.981
42.970, 0.621
43.040, 0.352
43.110, 0.224
43.180, 0.269
43.250, 0.570
43.320, 1.288
43.390, 2.588
43.460, 4.435
43.530, 6.409
43.600, 7.776
43.670, 7.915
43.740, 6.793
43.810, 5.016
43.880, 3.406
43.950, 2.508
44.020, 2.440
44.090, 3.101
44.160, 4.441
44.230, 6.473
44.300, 8.982
44.370, 11.248
44.440, 12.263
44.510, 11.417
44.580, 9.000
44.650, 6.007
44.720, 3.424
44.790, 1.713
44.860, 0.805
44.930, 0.410
45.000, 0.268
45.070, 0.233
45.140, 0.241
45.210, 0.267
45.280, 0.305
45.350, 0.357
45.420, 0.419
45.490, 0.475
45.560, 0.505
45.630, 0.505
45.700, 0.490
45.770, 0.484
45.840, 0.506
45.910, 0.579
45.980, 0.766
46.050, 1.171
46.120, 1.890
46.190, 2.883
46.260, 3.908
46.330, 4.608
46.400, 4.772
46.470, 4.513
46.540, 4.163
46.610, 3.965
46.680, 3.880
46.750, 3.703
46.820, 3.331
46.890, 2.893
46.960, 2.631
47.030, 2.685
47.100, 2.972
47.170, 3.227
47.240, 3.179
47.309, 2.733
47.379, 2.018
47.449, 1.286
47.519, 0.743
47.589, 0.472
47.659, 0.471
47.729, 0.758
47.799, 1.443
47.869, 2.704
47.939, 4.606
48.009, 6.861
48.079, 8.770
48.149, 9.551
48.219, 8.900
48.289, 7.282
48.359, 5.656
48.429, 4.851
48.499, 5.115
48.569, 6.122
48.639, 7.323
48.709, 8.302
48.779, 8.878
48.849, 8.950
48.919, 8.411
48.989, 7.256
49.059, 5.746
49.129, 4.363
49.199, 3.571
49.269, 3.604
49.339, 4.371
49.409, 5.474
49.479, 6.343
49.549, 6.504
49.619, 5.865
49.689, 4.770
49.759, 3.728
49.829, 3.066
49.899, 2.793
49.969, 2.763
50.039, 2.916
50.109, 3.340
50.179, 4.145
50.249, 5.311
50.319, 6.671
50.389, 7.993
50.459, 9.036
50.529, 9.571
50.599, 9.474
50.669, 8.844
50.739, 7.969
50.809, 7.093
50.879, 6.232
50.949, 5.245
51.019, 4.086
51.089, 2.917
51.159, 2.000
51.229, 1.495
51.299, 1.363
51.369, 1.417
51.439, 1.445
51.509, 1.325
51.579, 1.068
51.649, 0.777
51.719, 0.575
51.788, 0.547
51.858, 0.728
51.928, 1.093
51.998, 1.545
52.068, 1.937
52.138, 2.148
52.208, 2.183
52.278, 2.211
52.348, 2.476
52.418, 3.128
52.488, 4.087
52.558, 5.038
52.628, 5.602
52.698, 5.552
52.768, 4.932
52.838, 3.981
52.908, 2.978
52.978, 2.123
53.048, 1.508
53.118, 1.137
53.188, 0.950
53.258, 0.857
53.328, 0.782
53.398, 0.700
53.468, 0.646
53.538, 0.690
53.608, 0.893
53.678, 1.251
53.748, 1.668
53.818, 1.979
53.888, 2.038
53.958, 1.811
54.028, 1.399
54.098, 0.961
54.168, 0.629
54.238, 0.455
54.308, 0.443
54.378, 0.594
54.448, 0.941
54.518, 1.532
54.588, 2.388
54.658, 3.462
54.728, 4.606
54.798, 5.580
54.868, 6.099
54.938, 5.953
55.008, 5.145
55.078, 3.941
55.148, 2.740
55.218, 1.874
55.288, 1.463
55.358, 1.424
55.428, 1.564
55.498, 1.690
55.568, 1.696
55.638, 1.595
55.708, 1.482
55.778, 1.460
55.848, 1.581
55.918, 1.829
55.988, 2.142
56.058, 2.434
56.128, 2.638
56.198, 2.736
56.267, 2.767
56.337, 2.787
56.407, 2.802
56.477, 2.747
56.547, 2.549
56.617, 2.203
56.687, 1.791
56.757, 1.421
56.827, 1.153
56.897, 0.987
56.967, 0.895
57.037, 0.857
57.107, 0.860
57.177, 0.885
57.247, 0.898
57.317, 0.861
57.387, 0.760
57.457, 0.614
57.527, 0.466
57.597, 0.355
57.667, 0.299
57.737, 0.289
57.807, 0.308
57.877, 0.342
57.947, 0.398
58.017, 0.495
58.087, 0.655
58.157, 0.875
58.227, 1.116
58.297, 1.306
58.367, 1.382
58.437, 1.323
58.507, 1.164
58.577, 0.967
58.647, 0.787
58.717, 0.664
58.787, 0.631
58.857, 0.717
58.927, 0.939
58.997, 1.278
59.067, 1.667
59.137, 2.026
59.207, 2.313
59.277, 2.544
59.347, 2.755
59.417, 2.940
59.487, 3.023
59.557, 2.910
59.627, 2.565
59.697, 2.054
59.767, 1.503
59.837, 1.029
59.907, 0.686
59.977, 0.476
60.047, 0.385
60.117, 0.427
60.187, 0.668
60.257, 1.213
60.327, 2.145
60.397, 3.423
60.467, 4.795
60.537, 5.838
60.607, 6.155
60.677, 5.615
60.747, 4.438
60.816, 3.062
60.886, 1.882
60.956, 1.089
61.026, 0.671
61.096, 0.523
61.166, 0.551
61.236, 0.718
61.306, 1.020
61.376, 1.453
61.446, 2.008
61.516, 2.680
61.586, 3.477
61.656, 4.377
61.726, 5.284
61.796, 6.026
61.866, 6.421
61.936, 6.360
62.006, 5.839
62.076, 4.955
62.146, 3.871
62.216, 2.781
62.286, 1.854
62.356, 1.187
62.426, 0.793
62.496, 0.630
62.566, 0.633
62.636, 0.735
62.706, 0.863
62.776, 0.945
62.846, 0.936
62.916, 0.831
62.986, 0.671
63.056, 0.522
63.126, 0.435
63.196, 0.432
63.266, 0.499
63.336, 0.608
63.406, 0.745
63.476, 0.938
63.546, 1.246
63.616, 1.703
63.686, 2.265
63.756, 2.784
63.826, 3.084
63.896, 3.062
63.966, 2.756
64.036, 2.305
64.106, 1.853
64.176, 1.475
64.246, 1.178
64.316, 0.947
64.386, 0.788
64.456, 0.728
64.526, 0.805
64.596, 1.042
64.666, 1.420
64.736, 1.870
64.806, 2.279
64.876, 2.540
64.946, 2.612
65.016, 2.548
65.086, 2.463
65.156, 2.444
65.226, 2.489
65.295, 2.518
65.365, 2.463
65.435, 2.358
65.505, 2.346
65.575, 2.596
65.645, 3.197
65.715, 4.077
65.785, 5.009
65.855, 5.677
65.925, 5.811
65.995, 5.337
66.065, 4.424
66.135, 3.397
66.205, 2.552
66.275, 2.015
66.345, 1.726
66.415, 1.539
66.485, 1.336
66.555, 1.092
66.625, 0.859
66.695, 0.713
66.765, 0.702
66.835, 0.827
66.905, 1.045
66.975, 1.289
67.045, 1.498
67.115, 1.643
67.185, 1.744
67.255, 1.872
67.325, 2.106
67.395, 2.475
67.465, 2.906
67.535, 3.238
67.605, 3.299
67.675, 3.014
67.745, 2.456
67.815, 1.795
67.885, 1.200
67.955, 0.763
68.025, 0.490
68.095, 0.341
68.165, 0.264
68.235, 0.225
68.305, 0.209
68.375, 0.212
68.445, 0.239
68.515, 0.291
68.585, 0.380
68.655, 0.523
68.725, 0.738
68.795, 1.030
68.865, 1.366
68.935, 1.678
69.005, 1.897
69.075, 1.989
69.145, 1.980
69.215, 1.921
69.285, 1.849
69.355, 1.771
69.425, 1.680
69.495, 1.587
69.565, 1.512
69.635, 1.453
69.705, 1.380
69.774, 1.255
69.844, 1.069
69.914, 0.857
69.984, 0.671
70.054, 0.549
70.124, 0.491
70.194, 0.474
70.264, 0.469
70.334, 0.463
70.404, 0.460
70.474, 0.476
70.544, 0.525
70.614, 0.615
70.684, 0.733
70.754, 0.851
70.824, 0.928
70.894, 0.931
70.964, 0.859
71.034, 0.749
71.104, 0.664
71.174, 0.669
71.244, 0.811
71.314, 1.099
71.384, 1.489
71.454, 1.886
71.524, 2.177
71.594, 2.281
71.664, 2.197
71.734, 1.996
71.804, 1.778
71.874, 1.621
71.944, 1.564
72.014, 1.611
72.084, 1.739
72.154, 1.904
72.224, 2.036
72.294, 2.069
72.364, 1.961
72.434, 1.721
72.504, 1.395
72.574, 1.052
72.644, 0.748
72.714, 0.517
72.784, 0.368
72.854, 0.289
72.924, 0.264
72.994, 0.270
73.064, 0.287
73.134, 0.301
73.204, 0.309
73.274, 0.312
73.344, 0.318
73.414, 0.326
73.484, 0.337
73.554, 0.351
73.624, 0.375
73.694, 0.430
73.764, 0.546
73.834, 0.750
73.904, 1.051
73.974, 1.423
74.044, 1.813
74.114, 2.154
74.184, 2.387
74.254, 2.474
74.323, 2.399
74.393, 2.181
74.463, 1.869
74.533, 1.549
74.603, 1.316
74.673, 1.244
74.743, 1.360
74.813, 1.628
74.883, 1.957
74.953, 2.235
75.023, 2.372
75.093, 2.340
75.163, 2.179
75.233, 1.968
75.303, 1.781
75.373, 1.657
75.443, 1.602
75.513, 1.613
75.583, 1.698
75.653, 1.856
75.723, 2.060
75.793, 2.241
75.863, 2.317
75.933, 2.230
76.003, 1.982
76.073, 1.635
76.143, 1.280
76.213, 1.003
76.283, 0.850
76.353, 0.819
76.423, 0.868
76.493, 0.944
76.563, 1.008
76.633, 1.047
76.703, 1.083
76.773, 1.154
76.843, 1.298
76.913, 1.533
76.983, 1.842
77.053, 2.169
77.123, 2.437
77.193, 2.580
77.263, 2.574
77.333, 2.446
77.403, 2.253
77.473, 2.047
77.543, 1.842
77.613, 1.628
77.683, 1.395
77.753, 1.160
77.823, 0.955
77.893, 0.808
77.963, 0.717
78.033, 0.659
78.103, 0.603
78.173, 0.531
78.243, 0.446
78.313, 0.365
78.383, 0.303
78.453, 0.266
78.523, 0.258
78.593, 0.276
78.663, 0.318
78.733, 0.378
78.802, 0.443
78.872, 0.495
78.942, 0.517
79.012, 0.506
79.082, 0.473
79.152, 0.443
79.222, 0.443
79.292, 0.500
79.362, 0.630
79.432, 0.837
79.502, 1.108
79.572, 1.414
79.642, 1.721
79.712, 1.998
79.782, 2.215
79.852, 2.344
79.922, 2.358
79.992, 2.241
80.062, 2.005
80.132, 1.691
80.202, 1.361
80.272, 1.072
80.342, 0.866
80.412, 0.762
80.482, 0.775
80.552, 0.919
80.622, 1.206
80.692, 1.609
80.762, 2.045
80.832, 2.390
80.902, 2.529
80.972, 2.420
81.042, 2.121
81.112, 1.761
81.182, 1.459
81.252, 1.277
81.322, 1.201
81.392, 1.181
81.462, 1.173
81.532, 1.164
81.602, 1.162
81.672, 1.177
81.742, 1.201
81.812, 1.213
81.882, 1.194
81.952, 1.135
82.022, 1.041
82.092, 0.922
82.162, 0.789
82.232, 0.654
82.302, 0.524
82.372, 0.409
82.442, 0.316
82.512, 0.253
82.582, 0.223
82.652, 0.231
82.722, 0.277
82.792, 0.356
82.862, 0.454
82.932, 0.548
83.002, 0.611
83.072, 0.625
83.142, 0.587
83.212, 0.514
83.281, 0.429
83.351, 0.360
83.421, 0.326
83.491, 0.342
83.561, 0.412
83.631, 0.528
83.701, 0.672
83.771, 0.815
83.841, 0.930
83.911, 0.996
83.981, 1.003
84.051, 0.952
84.121, 0.851
84.191, 0.716
84.261, 0.566
84.331, 0.426
84.401, 0.314
84.471, 0.242
84.541, 0.213
84.611, 0.223
84.681, 0.258
84.751, 0.301
84.821, 0.337
84.891, 0.355
84.961, 0.352
85.031, 0.337
85.101, 0.327
85.171, 0.341
85.241, 0.394
85.311, 0.492
85.381, 0.620
85.451, 0.750
85.521, 0.845
85.591, 0.877
85.661, 0.837
85.731, 0.744
85.801, 0.635
85.871, 0.551
85.941, 0.517
86.011, 0.538
86.081, 0.597
86.151, 0.664
86.221, 0.714
86.291, 0.736
86.361, 0.741
86.431, 0.749
86.501, 0.784
86.571, 0.851
86.641, 0.941
86.711, 1.026
86.781, 1.077
86.851, 1.069
86.921, 0.996
86.991, 0.866
87.061, 0.707
87.131, 0.547
87.201, 0.410
87.271, 0.309
87.341, 0.245
87.411, 0.209
87.481, 0.194
87.551, 0.194
87.621, 0.204
87.691, 0.224
87.760, 0.250
87.830, 0.276
87.900, 0.292
87.970, 0.295
88.040, 0.287
88.110, 0.285
88.180, 0.310
88.250, 0.379
88.320, 0.498
88.390, 0.649
88.460, 0.799
88.530, 0.909
88.600, 0.952
88.670, 0.923
88.740, 0.838
88.810, 0.724
88.880, 0.605
88.950, 0.498
89.020, 0.409
89.090, 0.343
89.160, 0.297
89.230, 0.271
89.300, 0.262
89.370, 0.269
89.440, 0.294
89.510, 0.335
89.580, 0.386
89.650, 0.435
89.720, 0.469
89.790, 0.474
89.860, 0.447
89.930, 0.389
90.000, 0.311
##END=



