##NAMES=Bukovskyite
##RRUFFID=R050630
##IDEAL CHEMISTRY=Fe^3+^_2_(As^5+^O_4_)(S^6+^O_4_)(OH)&#183;7H_2_O
##LOCALITY=Kutna Hora, Bohemia, Czechoslovakia
##OWNER=RRUFF
##SOURCE=University of Arizona Mineral Museum
##DESCRIPTION=Compact aggregate of microscopic randomly oriented colorless acicular crystals
##DIFFRACTION SAMPLE DESCRIPTION=Powder, using Mo radiation
##STATUS=The identification of this mineral has been confirmed by X-ray diffraction and chemical analysis
##URL=rruff.info/R050630
##MEASURED CHEMISTRY=(Fe^3+^_1.97_Al_0.03_)((As_0.98_P_0.02_)O_4_)(S_1.00_O_4_)((OH)_0.94_F_0.03_Cl_0.03_)Â·7H_2_O
6.730000, 0.0000000E+00
6.760000, 2.114685
6.790000, 1.336823
6.820000, 1.662537
6.850000, 4.512543
6.880000, 13.10873
6.910000, 14.36868
6.940000, 11.08173
6.970000, 5.530518
7.000000, 3.974976
7.030000, 3.426910
7.060000, 2.260132
7.090000, 0.4516600
7.120000, 9.365479
7.150000, 14.57666
7.180000, 22.28314
7.210000, 40.31586
7.240000, 59.68097
7.270000, 79.20398
7.300000, 105.4156
7.330000, 122.8895
7.360000, 149.0290
7.390000, 165.6341
7.420000, 198.1086
7.450000, 227.8834
7.480000, 250.3842
7.510000, 276.6219
7.540000, 301.3190
7.570000, 323.3669
7.600000, 335.7837
7.630000, 344.8173
7.660000, 347.1527
7.690000, 343.0239
7.720000, 332.7274
7.750000, 314.3137
7.780000, 289.5651
7.810000, 265.9959
7.840000, 237.5844
7.870000, 206.3040
7.900000, 175.5999
7.930000, 145.1039
7.960000, 117.5565
7.990000, 102.0410
8.020000, 94.15399
8.050000, 89.53723
8.080000, 80.03461
8.110000, 63.92407
8.140000, 44.80951
8.170000, 38.94385
8.200000, 39.08759
8.230000, 31.18134
8.260000, 32.59961
8.290000, 39.34192
8.320000, 40.28058
8.350000, 45.39331
8.380000, 54.63165
8.410000, 48.73218
8.440000, 56.37769
8.470000, 60.96509
8.500000, 51.73126
8.530000, 51.02759
8.560000, 52.96570
8.590000, 55.46564
8.620000, 70.76282
8.650000, 84.23553
8.680000, 89.62042
8.710000, 95.64917
8.740000, 91.65173
8.770000, 91.64264
8.800000, 98.18079
8.830000, 103.3661
8.860000, 107.6871
8.890000, 118.3636
8.920000, 129.5400
8.950000, 134.4786
8.980000, 140.7731
9.010000, 147.9973
9.040000, 152.2726
9.070000, 165.8593
9.100000, 171.6761
9.130000, 168.9666
9.160000, 164.8895
9.190000, 172.7910
9.220000, 190.3030
9.250000, 203.1836
9.280000, 207.0876
9.310000, 198.8331
9.340000, 179.7839
9.370000, 177.2770
9.400000, 179.4723
9.430000, 184.9885
9.460000, 192.9147
9.490000, 204.5659
9.520000, 228.2643
9.550000, 251.7020
9.580000, 284.1689
9.610000, 310.7795
9.640000, 360.5443
9.670000, 410.8237
9.700000, 453.0164
9.730000, 501.3053
9.760000, 558.3458
9.790000, 607.9134
9.820000, 642.4145
9.850000, 666.8595
9.880000, 671.6578
9.910000, 665.6701
9.940000, 640.0256
9.970000, 610.1344
10.00000, 578.0466
10.03000, 540.3920
10.06000, 500.4905
10.09000, 469.4618
10.12000, 444.5361
10.15000, 424.8433
10.18000, 415.1328
10.21000, 407.6849
10.24000, 408.2493
10.27000, 417.1862
10.30000, 429.7446
10.33000, 434.5023
10.36000, 433.0706
10.39000, 414.8820
10.42000, 388.2729
10.45000, 364.1961
10.48000, 340.8340
10.51000, 312.1495
10.54000, 286.1556
10.57000, 237.6929
10.60000, 191.3988
10.63000, 156.3452
10.66000, 129.0633
10.69000, 103.8947
10.72000, 94.24329
10.75000, 77.34460
10.78000, 71.84735
10.81000, 76.99347
10.84000, 91.46600
10.87000, 107.4772
10.90000, 138.5361
10.93000, 175.4392
10.96000, 208.9266
10.99000, 246.0138
11.02000, 284.7061
11.05000, 324.8090
11.08000, 370.5220
11.11000, 410.6646
11.14000, 440.5862
11.17000, 466.6763
11.20000, 495.3849
11.23000, 515.4808
11.26000, 536.5145
11.29000, 565.4349
11.32000, 584.3522
11.35000, 586.2555
11.38000, 591.6850
11.41000, 596.2300
11.44000, 594.0209
11.47000, 583.0469
11.50000, 561.4878
11.53000, 535.5638
11.56000, 516.3341
11.59000, 492.9686
11.62000, 464.0077
11.65000, 427.6504
11.68000, 379.4167
11.71000, 333.1569
11.74000, 292.2399
11.77000, 254.7865
11.80000, 224.8358
11.83000, 196.1017
11.86000, 176.8472
11.89000, 159.5951
11.92000, 143.5518
11.95000, 129.2355
11.98000, 118.1599
12.01000, 111.4156
12.04000, 109.1547
12.07000, 113.4739
12.10000, 117.7640
12.13000, 123.3641
12.16000, 133.7269
12.19000, 155.4446
12.22000, 174.4831
12.25000, 189.6195
12.28000, 204.4373
12.31000, 215.6761
12.34000, 224.1263
12.37000, 240.2818
12.40000, 261.2914
12.43000, 281.3499
12.46000, 302.5803
12.49000, 313.8345
12.52000, 318.2861
12.55000, 322.0090
12.58000, 320.1018
12.61000, 308.2072
12.64000, 294.5468
12.67000, 277.3728
12.70000, 261.8683
12.73000, 250.8633
12.76000, 236.5284
12.79000, 226.6160
12.82000, 223.5552
12.85000, 222.3484
12.88000, 227.2222
12.91000, 241.2199
12.94000, 261.1879
12.97000, 287.7736
13.00000, 317.8975
13.03000, 351.1289
13.06000, 393.0683
13.09000, 436.6753
13.12000, 483.1497
13.15000, 527.1514
13.18000, 561.7000
13.21000, 586.0058
13.24000, 596.2282
13.27000, 599.1871
13.30000, 592.5717
13.33000, 569.6626
13.36000, 537.0693
13.39000, 498.4118
13.42000, 463.8301
13.45000, 432.8937
13.48000, 403.7329
13.51000, 385.8477
13.54000, 381.7579
13.57000, 381.8535
13.60000, 382.9644
13.63000, 384.6404
13.66000, 387.7617
13.69000, 400.6083
13.72000, 409.0999
13.75000, 405.6464
13.78000, 395.8779
13.81000, 384.0544
13.84000, 368.1957
13.87000, 350.0518
13.90000, 336.0925
13.93000, 319.9830
13.96000, 302.1543
13.99000, 288.0679
14.02000, 276.8644
14.05000, 263.5140
14.08000, 253.9172
14.11000, 247.8754
14.14000, 246.9290
14.17000, 255.8280
14.20000, 266.5531
14.23000, 269.5038
14.26000, 277.5496
14.29000, 285.1205
14.32000, 289.6555
14.35000, 295.1241
14.38000, 294.5760
14.41000, 288.6013
14.44000, 282.1173
14.47000, 267.5118
14.50000, 244.3231
14.53000, 221.8344
14.56000, 197.4362
14.59000, 175.3692
14.62000, 157.7703
14.65000, 144.7905
14.68000, 133.0163
14.71000, 126.9401
14.74000, 124.9285
14.77000, 114.6306
14.80000, 112.4100
14.83000, 117.1048
14.86000, 118.7789
14.89000, 119.4873
14.92000, 123.7078
14.95000, 128.2832
14.98000, 133.0075
15.01000, 140.8118
15.04000, 146.4939
15.07000, 149.5335
15.10000, 139.9058
15.13000, 127.6215
15.16000, 122.9967
15.19000, 115.3113
15.22000, 103.5392
15.25000, 90.63721
15.28000, 83.80731
15.31000, 81.70746
15.34000, 71.32050
15.37000, 59.70447
15.40000, 48.51221
15.43000, 39.82275
15.46000, 40.14191
15.49000, 41.05176
15.52000, 33.81903
15.55000, 30.47778
15.58000, 30.89191
15.61000, 32.05627
15.64000, 32.72705
15.67000, 31.41486
15.70000, 26.38177
15.73000, 20.26465
15.76000, 12.04358
15.79000, 8.0383003E-02
15.82000, 12.22198
15.85000, 14.56360
15.88000, 14.15375
15.91000, 15.46136
15.94000, 14.77136
15.97000, 15.50433
16.00000, 17.80109
16.03000, 22.36652
16.06000, 28.07715
16.09000, 30.05774
16.12000, 29.65436
16.15000, 30.60114
16.18000, 31.26770
16.21000, 29.57843
16.24000, 28.45782
16.27000, 25.00732
16.30000, 18.81555
16.33000, 11.16565
16.36000, 4.505127
16.39000, 4.254761
16.42000, 13.64355
16.45000, 16.69189
16.48000, 24.77588
16.51000, 38.81525
16.54000, 54.37415
16.57000, 72.39948
16.60000, 88.71222
16.63000, 99.29919
16.66000, 98.84943
16.69000, 97.75183
16.72000, 99.00049
16.75000, 99.51318
16.78000, 99.60999
16.81000, 96.75189
16.84000, 86.41071
16.87000, 80.77057
16.90000, 71.14325
16.93000, 60.58490
16.96000, 56.75629
16.99000, 53.28845
17.02000, 51.27045
17.05000, 52.43512
17.08000, 54.26147
17.11000, 60.72742
17.14000, 70.75208
17.17000, 75.94025
17.20000, 81.27393
17.23000, 86.59216
17.26000, 90.50580
17.29000, 92.15784
17.32000, 92.69226
17.35000, 91.48218
17.38000, 86.81525
17.41000, 81.76562
17.44000, 79.39728
17.47000, 77.42725
17.50000, 76.58667
17.53000, 78.66541
17.56000, 77.15381
17.59000, 78.70862
17.62000, 86.38007
17.65000, 94.02124
17.68000, 100.1439
17.71000, 104.3760
17.74000, 105.0582
17.77000, 108.4895
17.80000, 114.1211
17.83000, 124.2224
17.86000, 132.8724
17.89000, 139.8585
17.92000, 148.2335
17.95000, 149.8782
17.98000, 147.9858
18.01000, 142.6673
18.04000, 141.0742
18.07000, 134.0688
18.10000, 128.1598
18.13000, 119.8913
18.16000, 113.6492
18.19000, 104.7697
18.22000, 96.64496
18.25000, 89.40277
18.28000, 81.16022
18.31000, 78.17920
18.34000, 78.20166
18.37000, 80.74469
18.40000, 82.80011
18.43000, 82.00391
18.46000, 83.72791
18.49000, 78.51672
18.52000, 83.41058
18.55000, 85.07074
18.58000, 82.34216
18.61000, 77.55176
18.64000, 74.94855
18.67000, 74.13239
18.70000, 75.08148
18.73000, 76.27655
18.76000, 75.50470
18.79000, 71.16589
18.82000, 68.96710
18.85000, 64.63324
18.88000, 61.72858
18.91000, 59.28906
18.94000, 56.86615
18.97000, 55.36084
19.00000, 55.79944
19.03000, 55.86469
19.06000, 59.20093
19.09000, 55.02393
19.12000, 50.60248
19.15000, 48.33984
19.18000, 51.45288
19.21000, 58.97662
19.24000, 64.76794
19.27000, 71.87482
19.30000, 78.74335
19.33000, 86.51447
19.36000, 94.86908
19.39000, 99.24609
19.42000, 108.9117
19.45000, 116.2952
19.48000, 118.2479
19.51000, 121.3312
19.54000, 124.1246
19.57000, 124.5468
19.60000, 126.1590
19.63000, 126.3282
19.66000, 125.2026
19.69000, 118.9562
19.72000, 111.8454
19.75000, 111.8614
19.78000, 111.3514
19.81000, 107.9108
19.84000, 107.5190
19.87000, 106.5172
19.90000, 105.1614
19.93000, 105.7017
19.96000, 108.5144
19.99000, 110.1780
20.02000, 109.7642
20.05000, 107.1031
20.08000, 103.2136
20.11000, 95.14667
20.14000, 87.46136
20.17000, 81.95154
20.20000, 80.67438
20.23000, 76.24475
20.26000, 69.41571
20.29000, 62.95111
20.32000, 57.62115
20.35000, 51.76166
20.38000, 48.84863
20.41000, 43.77429
20.44000, 37.27838
20.47000, 34.09607
20.50000, 35.22021
20.53000, 35.44800
20.56000, 35.47632
20.59000, 35.72906
20.62000, 32.20355
20.65000, 27.40442
20.68000, 27.55884
20.71000, 30.19879
20.74000, 29.57416
20.77000, 31.28717
20.80000, 30.35370
20.83000, 29.09576
20.86000, 32.25824
20.89000, 33.09814
20.92000, 33.21558
20.95000, 35.58563
20.98000, 34.27997
21.01000, 33.61383
21.04000, 28.26624
21.07000, 18.12610
21.10000, 7.078491
21.13000, 0.2724000
21.16000, 3.344055
21.19000, 5.849792
21.22000, 7.919067
21.25000, 12.68390
21.28000, 16.60980
21.31000, 16.95465
21.34000, 16.65680
21.37000, 17.28003
21.40000, 16.78650
21.43000, 17.62402
21.46000, 16.08990
21.49000, 12.93427
21.52000, 14.54755
21.55000, 12.87237
21.58000, 5.345825
21.61000, 3.469116
21.64000, 8.080994
21.67000, 12.03027
21.70000, 20.46484
21.73000, 34.73163
21.76000, 50.13312
21.79000, 60.97125
21.82000, 70.91815
21.85000, 79.06073
21.88000, 88.77106
21.91000, 95.27216
21.94000, 99.43103
21.97000, 103.1607
22.00000, 109.8972
22.03000, 116.2655
22.06000, 113.8837
22.09000, 109.3238
22.12000, 108.4048
22.15000, 102.1367
22.18000, 95.75653
22.21000, 88.39343
22.24000, 78.38416
22.27000, 64.81409
22.30000, 52.05188
22.33000, 43.44080
22.36000, 38.97278
22.39000, 36.29291
22.42000, 34.20703
22.45000, 33.33539
22.48000, 30.72894
22.51000, 36.55359
22.54000, 42.77045
22.57000, 52.95453
22.60000, 49.23755
22.63000, 58.26758
22.66000, 43.03552
22.69000, 39.74280
22.72000, 37.82349
22.75000, 33.17853
22.78000, 28.33197
22.81000, 25.58783
22.84000, 29.81512
22.87000, 32.79694
22.90000, 38.88428
22.93000, 39.85217
22.96000, 39.06555
22.99000, 41.45905
23.02000, 45.35022
23.05000, 53.97260
23.08000, 59.27728
23.11000, 60.91345
23.14000, 56.75018
23.17000, 54.89368
23.20000, 54.32159
23.23000, 54.42902
23.26000, 52.85724
23.29000, 55.49304
23.32000, 57.77338
23.35000, 62.41144
23.38000, 72.12579
23.41000, 82.08228
23.44000, 84.69135
23.47000, 85.42725
23.50000, 86.88641
23.53000, 92.64911
23.56000, 99.79218
23.59000, 102.5656
23.62000, 102.9610
23.65000, 100.9186
23.68000, 95.80621
23.71000, 87.16907
23.74000, 76.32904
23.77000, 66.70715
23.80000, 59.14948
23.83000, 57.27209
23.86000, 56.91583
23.89000, 53.90552
23.92000, 50.46484
23.95000, 47.30676
23.98000, 45.74677
24.01000, 47.75403
24.04000, 51.81158
24.07000, 52.74713
24.10000, 51.80420
24.13000, 56.55249
24.16000, 57.23981
24.19000, 61.77856
24.22000, 62.87256
24.25000, 63.96857
24.28000, 66.72412
24.31000, 71.95184
24.34000, 78.04077
24.37000, 85.52966
24.40000, 95.09442
24.43000, 103.9647
24.46000, 114.9118
24.49000, 121.0704
24.52000, 126.3907
24.55000, 136.2990
24.58000, 146.5479
24.61000, 155.5746
24.64000, 164.6672
24.67000, 176.8972
24.70000, 186.3539
24.73000, 192.3969
24.76000, 197.8050
24.79000, 200.8448
24.82000, 201.5911
24.85000, 200.4854
24.88000, 197.8000
24.91000, 190.8505
24.94000, 178.7214
24.97000, 171.9112
25.00000, 158.5787
25.03000, 151.5859
25.06000, 143.9022
25.09000, 133.9281
25.12000, 125.0941
25.15000, 116.3283
25.18000, 107.3281
25.21000, 100.1826
25.24000, 91.39783
25.27000, 84.47797
25.30000, 77.45618
25.33000, 74.84125
25.36000, 68.36713
25.39000, 66.32269
25.42000, 61.82629
25.45000, 62.88300
25.48000, 54.72882
25.51000, 50.17145
25.54000, 48.03992
25.57000, 48.68005
25.60000, 51.01630
25.63000, 50.01727
25.66000, 50.92413
25.69000, 50.95178
25.72000, 46.14050
25.75000, 43.34113
25.78000, 42.20868
25.81000, 41.82922
25.84000, 39.77625
25.87000, 38.30609
25.90000, 37.55701
25.93000, 34.52863
25.96000, 34.24036
25.99000, 32.86816
26.02000, 26.95911
26.05000, 21.56110
26.08000, 17.33124
26.11000, 11.28052
26.14000, 7.634949
26.17000, 11.78156
26.20000, 16.29034
26.23000, 19.00232
26.26000, 26.54150
26.29000, 32.48596
26.32000, 37.49872
26.35000, 47.27869
26.38000, 54.57404
26.41000, 56.42456
26.44000, 61.22650
26.47000, 74.37573
26.50000, 82.09644
26.53000, 86.62939
26.56000, 94.02087
26.59000, 100.9467
26.62000, 111.6059
26.65000, 114.4045
26.68000, 115.5426
26.71000, 115.3999
26.74000, 110.5607
26.77000, 110.8529
26.80000, 113.7885
26.83000, 117.2784
26.86000, 119.4297
26.89000, 111.9454
26.92000, 95.95526
26.95000, 86.29547
26.98000, 80.20874
27.01000, 75.17212
27.04000, 70.46814
27.07000, 62.37738
27.10000, 55.22675
27.13000, 47.98346
27.16000, 38.52118
27.19000, 37.54120
27.22000, 42.33649
27.25000, 38.51105
27.28000, 25.96680
27.31000, 14.41370
27.34000, 11.15198
27.37000, 12.70245
27.40000, 12.96429
27.43000, 14.55334
27.46000, 12.73706
27.49000, 6.126831
27.52000, 3.384766
27.55000, 2.995178
27.58000, 12.81519
27.61000, 21.47919
27.64000, 22.11133
27.67000, 17.18652
27.70000, 18.49756
27.73000, 15.83014
27.76000, 19.07697
27.79000, 19.43707
27.82000, 21.07031
27.85000, 23.49731
27.88000, 26.65210
27.91000, 30.35895
27.94000, 35.08594
27.97000, 41.20520
28.00000, 44.90753
28.03000, 45.41541
28.06000, 40.91052
28.09000, 37.51147
28.12000, 31.12799
28.15000, 24.64178
28.18000, 22.00854
28.21000, 20.94153
28.24000, 19.13068
28.27000, 13.55255
28.30000, 11.03101
28.33000, 8.145691
28.36000, 8.178528
28.39000, 13.28931
28.42000, 17.93335
28.45000, 20.54004
28.48000, 18.20636
28.51000, 12.57922
28.54000, 10.71576
28.57000, 14.69281
28.60000, 17.09412
28.63000, 17.04773
28.66000, 22.70490
28.69000, 26.12561
28.72000, 24.50494
28.75000, 29.74713
28.78000, 37.06744
28.81000, 41.55865
28.84000, 45.10712
28.87000, 49.62036
28.90000, 52.93292
28.93000, 48.39154
28.96000, 46.87726
28.99000, 50.28003
29.02000, 52.65692
29.05000, 50.03174
29.08000, 45.87567
29.11000, 45.98962
29.14000, 44.46832
29.17000, 42.81116
29.20000, 43.57855
29.23000, 39.08649
29.26000, 36.87042
29.29000, 31.48633
29.32000, 30.08417
29.35000, 26.59802
29.38000, 25.50372
29.41000, 23.93347
29.44000, 23.73907
29.47000, 23.67157
29.50000, 18.11603
29.53000, 8.651367
29.56000, 2.135498
29.59000, 2.745483
29.62000, 5.649353
29.65000, 9.237000
29.68000, 12.94159
29.71000, 12.89093
29.74000, 14.23810
29.77000, 14.56403
29.80000, 10.29175
29.83000, 4.355286
29.86000, 2.260559
29.89000, 2.761780
29.92000, 6.327332
29.95000, 6.371765
29.98000, 9.688843
30.01000, 16.18738
30.04000, 18.28027
30.07000, 14.49512
30.10000, 11.41510
30.13000, 11.29272
30.16000, 13.44910
30.19000, 17.47009
30.22000, 16.77576
30.25000, 13.36603
30.28000, 12.81000
30.31000, 10.40369
30.34000, 12.06537
30.37000, 14.78583
30.40000, 13.92694
30.43000, 10.55743
30.46000, 8.702393
30.49000, 2.879028
30.52000, 2.241577
30.55000, 3.914490
30.58000, 0.6643680
30.61000, 2.156372
30.64000, 5.786743
30.67000, 8.571472
30.70000, 10.59662
30.73000, 9.193298
30.76000, 6.198486
30.79000, 4.716125
30.82000, 4.897949
30.85000, 7.879089
30.88000, 8.739502
30.91000, 9.630127
30.94000, 8.146423
30.97000, 8.705994
31.00000, 2.405334
31.03000, 3.809082
31.06000, 8.686279
31.09000, 12.44116
31.12000, 14.27148
31.15000, 18.41229
31.18000, 14.81464
31.21000, 12.96277
31.24000, 11.67688
31.27000, 5.086365
31.30000, 2.705444
31.33000, 0.8723750
31.36000, 3.890564
31.39000, 8.104858
31.42000, 11.68274
31.45000, 14.65826
31.48000, 15.22443
31.51000, 18.90381
31.54000, 21.33710
31.57000, 17.87854
31.60000, 16.73535
31.63000, 13.70734
31.66000, 14.15662
31.69000, 18.78131
31.72000, 20.76562
31.75000, 19.24396
31.78000, 18.50464
31.81000, 19.40515
31.84000, 20.73834
31.87000, 19.03485
31.90000, 16.89795
31.93000, 16.53052
31.96000, 17.40869
31.99000, 16.18915
32.02000, 13.34149
32.05000, 11.95361
32.08000, 6.647705
32.11000, 0.7539060
32.14000, 2.955933
32.17000, 2.700378
32.20000, 1.390198
32.23000, 1.969055
32.26000, 4.7302000E-02
32.29000, 2.236450
32.32000, 1.667908
32.35000, 4.689026
32.38000, 3.110229
32.41000, 5.664368
32.44000, 10.45624
32.47000, 12.59796
32.50000, 13.87952
32.53000, 12.66791
32.56000, 14.19147
32.59000, 8.644897
32.62000, 13.31757
32.65000, 13.70691
32.68000, 9.924072
32.71000, 14.61591
32.74000, 23.58649
32.77000, 28.07574
32.80000, 29.12366
32.83000, 32.74420
32.86000, 32.26642
32.89000, 31.87726
32.92000, 34.94769
32.95000, 35.12280
32.98000, 31.51941
33.01000, 31.16058
33.04000, 32.22833
33.07000, 31.57257
33.10000, 35.64038
33.13000, 42.25769
33.16000, 43.66650
33.19000, 44.86987
33.22000, 45.17157
33.25000, 41.80591
33.28000, 38.17358
33.31000, 32.64667
33.34000, 30.44971
33.37000, 34.04358
33.40000, 36.40295
33.43000, 38.88959
33.46000, 38.80206
33.49000, 37.05707
33.52000, 39.20477
33.55000, 40.08557
33.58000, 39.64276
33.61000, 36.20111
33.64000, 35.16144
33.67000, 32.29156
33.70000, 28.85443
33.73000, 26.37830
33.76000, 25.34796
33.79000, 20.59039
33.82000, 10.14026
33.85000, 9.639221
33.88000, 11.29901
33.91000, 14.94275
33.94000, 25.53058
33.97000, 30.59222
34.00000, 28.95251
34.03000, 29.02325
34.06000, 33.26642
34.09000, 37.30951
34.12000, 36.55328
34.15000, 41.67194
34.18000, 46.70947
34.21000, 43.41351
34.24000, 44.46747
34.27000, 48.34442
34.30000, 47.39923
34.33000, 48.74756
34.36000, 49.20868
34.39000, 44.06732
34.42000, 38.39819
34.45000, 36.49896
34.48000, 32.63611
34.51000, 26.52808
34.54000, 27.34271
34.57000, 25.67029
34.60000, 22.11169
34.63000, 22.61981
34.66000, 23.15057
34.69000, 23.21661
34.72000, 20.17603
34.75000, 16.68970
34.78000, 14.69910
34.81000, 14.96313
34.84000, 11.69446
34.87000, 8.244812
34.90000, 9.255615
34.93000, 10.15704
34.96000, 7.373840
34.99000, 8.757202
35.02000, 7.982971
35.05000, 8.836670
35.08000, 7.390930
35.11000, 7.427979
35.14000, 6.797485
35.17000, 1.379578
35.20000, 1.252258
35.23000, 7.305542
35.26000, 10.03339
35.29000, 5.072327
35.32000, 0.1198120
35.35000, 5.264038
35.38000, 11.03436
35.41000, 7.644531
35.44000, 5.218323
35.47000, 5.257813
35.50000, 4.863892
35.53000, 2.429626
35.56000, 3.563538
35.59000, 3.089905
35.62000, 4.607544
35.65000, 6.764893
35.68000, 9.779907
35.71000, 11.93835
35.74000, 11.13275
35.77000, 9.562866
35.80000, 8.843201
35.83000, 9.947815
35.86000, 4.250854
35.89000, 0.9707640
35.92000, 4.397217
35.95000, 8.034424
35.98000, 11.48132
36.01000, 10.53003
36.04000, 7.940491
36.07000, 8.551514
36.10000, 9.701355
36.13000, 9.240906
36.16000, 11.09613
36.19000, 11.09406
36.22000, 11.87567
36.25000, 16.05902
36.28000, 19.09607
36.31000, 19.54291
36.34000, 20.86218
36.37000, 15.46759
36.40000, 18.66840
36.43000, 13.20801
36.46000, 7.995300
36.49000, 8.543335
36.52000, 9.453918
36.55000, 11.49323
36.58000, 13.26630
36.61000, 12.58710
36.64000, 11.97852
36.67000, 11.22760
36.70000, 11.53552
36.73000, 14.02899
36.76000, 12.41370
36.79000, 12.33270
36.82000, 11.17169
36.85000, 9.533997
36.88000, 9.156921
36.91000, 6.966614
36.94000, 9.997925
36.97000, 7.183350
37.00000, 11.37354
37.03000, 4.136841
37.06000, 2.0630000E-02
37.09000, 1.539368
37.12000, 1.357910
37.15000, 0.2741090
37.18000, 0.1933590
37.21000, 1.879333
37.24000, 0.8571170
37.27000, 0.9223630
37.30000, 2.831909
37.33000, 7.173523
37.36000, 7.239685
37.39000, 6.887634
37.42000, 5.443054
37.45000, 2.460144
37.48000, 0.8124390
37.51000, 2.317627
37.54000, 1.882385
37.57000, 0.8727420
37.60000, 1.152161
37.63000, 2.515808
37.66000, 2.438232
37.69000, 0.4124760
37.72000, 1.076721
37.75000, 0.3433840
37.78000, 1.873291
37.81000, 1.829407
37.84000, 1.537964
37.87000, 1.692261
37.90000, 5.047607
37.93000, 5.629578
37.96000, 6.350098
37.99000, 9.390259
38.02000, 8.754150
38.05000, 9.455994
38.08000, 10.78058
38.11000, 10.16101
38.14000, 5.997131
38.17000, 3.918030
38.20000, 5.634460
38.23000, 6.386047
38.26000, 6.743896
38.29000, 7.714722
38.32000, 8.212158
38.35000, 7.725281
38.38000, 8.525085
38.41000, 11.27838
38.44000, 14.81964
38.47000, 15.96259
38.50000, 14.14288
38.53000, 14.56018
38.56000, 17.31244
38.59000, 12.13757
38.62000, 8.239563
38.65000, 8.045349
38.68000, 7.549072
38.71000, 14.25867
38.74000, 11.48315
38.77000, 12.22803
38.80000, 22.02057
38.83000, 23.99854
38.86000, 17.94983
38.89000, 21.81561
38.92000, 23.00024
38.95000, 18.07776
38.98000, 13.02869
39.01000, 14.98999
39.04000, 18.81757
39.07000, 22.14771
39.10000, 26.25714
39.13000, 27.53235
39.16000, 30.90466
39.19000, 30.28302
39.22000, 35.64001
39.25000, 38.32446
39.28000, 40.12512
39.31000, 38.26617
39.34000, 38.92639
39.37000, 37.08331
39.40000, 36.98895
39.43000, 40.75684
39.46000, 39.25372
39.49000, 38.26495
39.52000, 40.61139
39.55000, 40.39313
39.58000, 35.63110
39.61000, 29.89221
39.64000, 30.96552
39.67000, 33.87402
39.70000, 33.86578
39.73000, 40.98474
39.76000, 42.91620
39.79000, 40.33209
39.82000, 37.61511
39.85000, 36.05554
39.88000, 32.64008
39.91000, 32.14691
39.94000, 32.38690
39.97000, 33.69226
40.00000, 34.23383
40.03000, 36.01758
40.06000, 32.54883
40.09000, 31.02911
40.12000, 27.10181
40.15000, 25.07172
40.18000, 26.81989
40.21000, 27.67645
40.24000, 26.73718
40.27000, 29.17126
40.30000, 30.04370
40.33000, 29.67938
40.36000, 33.68439
40.39000, 35.40173
40.42000, 32.74640
40.45000, 31.53741
40.48000, 29.08063
40.51000, 28.41681
40.54000, 30.82690
40.57000, 29.78815
40.60000, 30.39288
40.63000, 33.22357
40.66000, 32.06580
40.69000, 34.09393
40.72000, 34.90228
40.75000, 32.41473
40.78000, 33.15424
40.81000, 29.80475
40.84000, 28.02826
40.87000, 27.70215
40.90000, 26.34302
40.93000, 25.41534
40.96000, 25.86328
40.99000, 26.76184
41.02000, 27.08807
41.05000, 27.44312
41.08000, 27.72827
41.11000, 28.53485
41.14000, 29.32806
41.17000, 28.57751
41.20000, 31.06592
41.23000, 33.76343
41.26000, 33.31262
41.29000, 28.66772
41.32000, 25.55267
41.35000, 25.03943
41.38000, 19.53577
41.41000, 24.12842
41.44000, 26.50909
41.47000, 26.93781
41.50000, 18.97607
41.53000, 21.91193
41.56000, 20.48834
41.59000, 18.89703
41.62000, 23.38257
41.65000, 16.66937
41.68000, 21.05829
41.71000, 21.01526
41.74000, 22.98706
41.77000, 20.54913
41.80000, 19.48230
41.83000, 22.81500
41.86000, 23.71631
41.89000, 20.79846
41.92000, 22.90930
41.95000, 16.03662
41.98000, 17.04840
42.01000, 21.46069
42.04000, 18.76642
42.07000, 20.95831
42.10000, 21.28888
42.13000, 13.16199
42.16000, 19.74518
42.19000, 19.96515
42.22000, 18.03320
42.25000, 20.53369
42.28000, 21.83026
42.31000, 21.26050
42.34000, 18.22235
42.37000, 18.64709
42.40000, 15.46661
42.43000, 13.12921
42.46000, 11.08289
42.49000, 11.46564
42.52000, 12.60773
42.55000, 13.83636
42.58000, 17.63275
42.61000, 20.50726
42.64000, 23.28027
42.67000, 20.46613
42.70000, 18.36615
42.73000, 16.58441
42.76000, 17.57324
42.79000, 15.42450
42.82000, 15.29993
42.85000, 16.56580
42.88000, 16.49640
42.91000, 18.63062
42.94000, 13.38153
42.97000, 18.38220
43.00000, 21.15088
43.03000, 21.80780
43.06000, 14.02899
43.09000, 17.14294
43.12000, 15.92499
43.15000, 14.49396
43.18000, 19.13977
43.21000, 12.58704
43.24000, 17.13586
43.27000, 17.25250
43.30000, 19.39709
43.33000, 17.19196
43.36000, 16.57245
43.39000, 20.30084
43.42000, 21.36938
43.45000, 18.61426
43.48000, 20.88556
43.51000, 14.17523
43.54000, 15.34570
43.57000, 19.91614
43.60000, 17.38007
43.63000, 19.72986
43.66000, 20.21838
43.69000, 12.24908
43.72000, 18.98779
43.75000, 19.36523
43.78000, 13.21130
43.81000, 19.44482
43.84000, 14.19116
43.87000, 13.03693
43.90000, 14.96814
43.93000, 13.68219
43.96000, 17.46765
43.99000, 16.36688
44.02000, 14.82916
44.05000, 15.19629
44.08000, 10.16473
44.11000, 15.14783
44.14000, 13.28955
44.17000, 14.83160
44.20000, 17.14404
44.23000, 13.55457
44.26000, 16.21350
44.29000, 9.184021
44.32000, 10.26276
44.35000, 10.46875
44.38000, 15.85724
44.41000, 10.94385
44.44000, 12.03906
44.47000, 17.78552
44.50000, 13.51270
44.53000, 12.97858
44.56000, 12.04987
44.59000, 7.237610
44.62000, 3.483887
44.65000, 7.318054
44.68000, 9.802368
44.71000, 9.497803
44.74000, 8.569946
44.77000, 8.460815
44.80000, 6.966309
44.83000, 4.587830
44.86000, 6.561401
44.89000, 10.99939
44.92000, 15.43152
44.95000, 14.02295
44.98000, 15.62616
45.01000, 15.23120
45.04000, 8.272034
45.07000, 6.566956
45.10000, 8.115601
45.13000, 8.335083
45.16000, 11.03241
45.19000, 10.59143
45.22000, 10.45422
45.25000, 9.624756
45.28000, 8.619019
45.31000, 10.62701
45.34000, 12.27478
45.37000, 11.00848
45.40000, 10.10999
45.43000, 8.908264
45.46000, 8.069397
45.49000, 6.028198
45.52000, 8.857910
45.55000, 12.19226
45.58000, 11.33734
45.61000, 10.22723
45.64000, 9.421814
45.67000, 8.454224
45.70000, 7.389771
45.73000, 2.785339
45.76000, 5.222961
45.79000, 4.316345
45.82000, 3.125488
45.85000, 5.200439
45.88000, 4.948181
45.91000, 4.168701
45.94000, 4.946960
45.97000, 3.886963
46.00000, 2.322754
46.03000, 0.1627810
46.06000, 3.311035
46.09000, 0.9359130
46.12000, 1.035034
46.15000, 4.069397
46.18000, 5.891785
46.21000, 8.705933
46.24000, 11.15247
46.27000, 9.460602
46.30000, 6.510498
46.33000, 2.377594
46.36000, 0.5963750
46.39000, 1.366943
46.42000, 3.627136
46.45000, 6.378113
46.48000, 6.346802
46.51000, 7.807251
46.54000, 10.60962
46.57000, 11.05060
46.60000, 8.195435
46.63000, 6.171082
46.66000, 3.157471
46.69000, 2.7588001E-02
46.72000, 4.163177
46.75000, 4.136444
46.78000, 2.093689
46.81000, 6.746674
46.84000, 7.626434
46.87000, 3.057953
46.90000, 0.2106020
46.93000, 3.876892
46.96000, 3.170685
46.99000, 1.784241
47.02000, 3.149109
47.05000, 4.906647
47.08000, 9.274139
47.11000, 10.44189
47.14000, 10.54956
47.17000, 8.057129
47.20000, 5.545563
47.23000, 7.570831
47.26000, 11.37695
47.29000, 10.70300
47.32000, 6.987854
47.35000, 2.604553
47.38000, 2.546143
47.41000, 0.9586490
47.44000, 2.050995
47.47000, 6.565277
47.50000, 10.57700
47.53000, 8.055389
47.56000, 8.925293
47.59000, 9.793182
47.62000, 5.617950
47.65000, 8.919586
47.68000, 13.89517
47.71000, 14.36066
47.74000, 14.03009
47.77000, 15.43539
47.80000, 16.59064
47.83000, 21.33685
47.86000, 20.29196
47.89000, 17.95398
47.92000, 11.79001
47.95000, 6.405884
47.98000, 3.628876
48.01000, 2.861908
48.04000, 2.856842
48.07000, 4.894775
48.10000, 2.246613
48.13000, 1.169586
48.16000, 2.304565
48.19000, 1.008270
48.22000, 4.358643
48.25000, 7.750305
48.28000, 5.711975
48.31000, 7.669556
48.34000, 12.29007
48.37000, 17.65155
48.40000, 13.90195
48.43000, 10.61734
48.46000, 10.22363
48.49000, 10.86087
48.52000, 8.163177
48.55000, 8.778290
48.58000, 12.55438
48.61000, 14.47940
48.64000, 14.49042
48.67000, 14.84729
48.70000, 17.12817
48.73000, 16.82059
48.76000, 16.95816
48.79000, 17.23853
48.82000, 15.58725
48.85000, 14.64893
48.88000, 12.91354
48.91000, 9.706146
48.94000, 10.47073
48.97000, 8.238159
49.00000, 9.959900
49.03000, 6.464447
49.06000, 7.089996
49.09000, 7.391510
49.12000, 8.644104
49.15000, 12.88565
49.18000, 13.40817
49.21000, 15.32574
49.24000, 16.18631
49.27000, 15.12592
49.30000, 8.975555
49.33000, 4.614990
49.36000, 3.991638
49.39000, 7.603424
49.42000, 13.54962
49.45000, 17.50302
49.48000, 17.36844
49.51000, 14.05991
49.54000, 14.11649
49.57000, 17.81607
49.60000, 17.66907
49.63000, 16.26328
49.66000, 19.00784
49.69000, 12.45840
49.72000, 6.511688
49.75000, 4.685577
49.78000, 1.326233
49.81000, 5.558472
49.84000, 8.348602
49.87000, 11.34766
49.90000, 14.60873
49.93000, 8.653137
49.96000, 5.863251
49.99000, 7.610291
50.02000, 9.375763
50.05000, 13.14215
50.08000, 13.33731
50.11000, 8.534851
50.14000, 3.570770
50.17000, 3.576996
50.20000, 9.689575
50.23000, 9.472839
50.26000, 8.138397
50.29000, 8.174225
50.32000, 4.936127
50.35000, 5.696381
50.38000, 6.990570
50.41000, 4.231628
50.44000, 5.080109
50.47000, 9.898956
50.50000, 12.37335
50.53000, 9.503876
50.56000, 9.518127
50.59000, 8.649414
50.62000, 4.805450
50.65000, 6.069885
50.68000, 4.712341
50.71000, 2.915924
50.74000, 0.6247860
50.77000, 4.167084
50.80000, 1.219818
50.83000, 6.051025
50.86000, 12.57169
50.89000, 13.41895
50.92000, 11.86612
50.95000, 8.551727
50.98000, 2.795227
51.01000, 5.420685
51.04000, 6.499146
51.07000, 0.7118840
51.10000, 0.1255190
51.13000, 4.910339
51.16000, 11.30759
51.19000, 13.99542
51.22000, 13.52173
51.25000, 15.49753
51.28000, 15.39987
51.31000, 13.82065
51.34000, 14.20694
51.37000, 13.55273
51.40000, 12.17398
51.43000, 7.324799
51.46000, 6.020172
51.49000, 6.292999
51.52000, 12.01331
51.55000, 16.15863
51.58000, 13.62280
51.61000, 9.265686
51.64000, 13.10013
51.67000, 12.39203
51.70000, 10.45850
51.73000, 8.137878
51.76000, 12.04807
51.79000, 15.70111
51.82000, 17.84274
51.85000, 19.14386
51.88000, 14.61060
51.91000, 8.966827
51.94000, 7.140625
51.97000, 10.25803
52.00000, 11.79596
52.03000, 12.26746
52.06000, 11.86853
52.09000, 12.09213
52.12000, 11.09735
52.15000, 15.59015
52.18000, 12.05054
52.21000, 6.151459
52.24000, 8.159973
52.27000, 11.27408
52.30000, 14.58273
52.33000, 16.25708
52.36000, 17.05890
52.39000, 15.19635
52.42000, 12.69391
52.45000, 17.73929
52.48000, 20.55444
52.51000, 21.25873
52.54000, 13.52838
52.57000, 16.69122
52.60000, 15.48950
52.63000, 14.10922
52.66000, 18.80710
52.69000, 12.30664
52.72000, 16.90933
52.75000, 17.08054
52.78000, 19.28094
52.81000, 17.08945
52.84000, 16.25534
52.87000, 19.81540
52.90000, 20.94336
52.93000, 18.24887
52.96000, 20.59091
52.99000, 14.19348
53.02000, 13.72693
53.05000, 13.15622
53.08000, 13.30017
53.11000, 5.250671
53.14000, 10.21478
53.17000, 12.02847
53.20000, 7.849762
53.23000, 8.604950
53.26000, 8.789856
53.29000, 5.893799
53.32000, 10.17090
53.35000, 13.27490
53.38000, 13.70731
53.41000, 13.86081
53.44000, 12.76910
53.47000, 13.92712
53.50000, 14.86945
53.53000, 15.03345
53.56000, 16.55173
53.59000, 16.40964
53.62000, 13.91760
53.65000, 15.38724
53.68000, 16.62686
53.71000, 21.68900
53.74000, 22.25977
53.77000, 23.88208
53.80000, 27.43958
53.83000, 23.62894
53.86000, 22.88748
53.89000, 18.22513
53.92000, 17.94635
53.95000, 13.85034
53.98000, 10.56284
54.01000, 9.518127
54.04000, 4.750885
54.07000, 4.561188
54.10000, 7.181183
54.13000, 3.594940
54.16000, 5.680267
54.19000, 6.457062
54.22000, 3.293457
54.25000, 3.538666
54.28000, 6.733063
54.31000, 1.252563
54.34000, 4.751801
54.37000, 8.178589
54.40000, 11.27283
54.43000, 12.57162
54.46000, 12.20175
54.49000, 10.47241
54.52000, 9.582947
54.55000, 10.59177
54.58000, 22.08905
54.61000, 22.37479
54.64000, 17.19601
54.67000, 14.07217
54.70000, 7.872925
54.73000, 13.74756
54.76000, 9.624268
54.79000, 15.99020
54.82000, 9.135223
54.85000, 5.252686
54.88000, 5.468628
54.91000, 8.750000
54.94000, 9.096832
54.97000, 12.94009
55.00000, 11.20425
55.03000, 13.50992
55.06000, 7.280426
55.09000, 2.422455
55.12000, 0.9991150
55.15000, 1.382446
55.18000, 8.152313
55.21000, 7.135498
55.24000, 8.486115
55.27000, 9.308136
55.30000, 10.00159
55.33000, 5.605743
55.36000, 6.274872
55.39000, 10.13043
55.42000, 14.64932
55.45000, 12.15659
55.48000, 10.21722
55.51000, 8.434204
55.54000, 8.791534
55.57000, 6.326141
55.60000, 7.687225
55.63000, 12.89340
55.66000, 15.94894
55.69000, 17.07376
55.72000, 15.94992
55.75000, 12.38846
55.78000, 15.10522
55.81000, 18.75336
55.84000, 12.78275
55.87000, 11.71347
55.90000, 8.901489
55.93000, 2.575775
55.96000, 3.159363
55.99000, 3.365326
56.02000, 1.454254
56.05000, 1.808807
56.08000, 1.250488
56.11000, 0.8999330
56.14000, 4.890778
56.17000, 6.114014
56.20000, 11.71249
56.23000, 10.19116
56.26000, 10.42496
56.29000, 11.70584
56.32000, 18.02185
56.35000, 17.46896
56.38000, 17.41409
56.41000, 17.38791
56.44000, 12.80356
56.47000, 11.47388
56.50000, 6.770172
56.53000, 0.2305600
56.56000, 4.759369
56.59000, 2.096039
56.62000, 2.952332
56.65000, 7.489227
56.68000, 7.132172
56.71000, 10.71548
56.74000, 14.76517
56.77000, 9.027191
56.80000, 3.087616
56.83000, 7.092407
56.86000, 7.344513
56.89000, 7.031006
56.92000, 11.32523
56.95000, 16.13925
56.98000, 20.80869
57.01000, 22.13397
57.04000, 23.67688
57.07000, 16.90503
57.10000, 8.556427
57.13000, 2.280060
57.16000, 0.3778380
57.19000, 2.284149
57.22000, 1.607513
57.25000, 3.585876
57.28000, 4.836487
57.31000, 1.890259
57.34000, 1.034088
57.37000, 1.142670
57.40000, 3.477203
57.43000, 1.918579
57.46000, 1.548737
57.49000, 8.573700
57.52000, 10.77014
57.55000, 7.823547
57.58000, 11.21185
57.61000, 12.10284
57.64000, 14.30521
57.67000, 14.73740
57.70000, 15.95273
57.73000, 15.07120
57.76000, 11.02173
57.79000, 10.90686
57.82000, 17.50031
57.85000, 20.90146
57.88000, 16.90277
57.91000, 15.16632
57.94000, 11.95541
57.97000, 7.864624
58.00000, 8.270691
58.03000, 0.1658940
58.06000, 0.8510130
58.09000, 2.906219
58.12000, 1.159515
58.15000, 2.802795
58.18000, 7.079742
58.21000, 4.603699
58.24000, 5.421692
58.27000, 9.918732
58.30000, 19.98883
58.33000, 21.76395
58.36000, 16.16309
58.39000, 13.34528
58.42000, 14.33075
58.45000, 13.34625
58.48000, 7.391785
58.51000, 10.03632
58.54000, 8.838898
58.57000, 8.615417
58.60000, 12.35605
58.63000, 14.52374
58.66000, 9.171417
58.69000, 4.603180
58.72000, 7.872528
58.75000, 13.65259
58.78000, 18.86047
58.81000, 14.25143
58.84000, 16.51147
58.87000, 16.83798
58.90000, 11.30133
58.93000, 13.66513
58.96000, 10.94476
58.99000, 14.65225
59.02000, 18.14447
59.05000, 15.08078
59.08000, 17.54077
59.11000, 12.16818
59.14000, 18.24042
59.17000, 19.94708
59.20000, 22.23953
59.23000, 24.89398
59.26000, 17.05557
59.29000, 11.41583
59.32000, 12.22968
59.35000, 5.463074
59.38000, 6.451080
59.41000, 17.77664
59.44000, 17.87665
59.47000, 21.10916
59.50000, 16.40305
59.53000, 6.419250
59.56000, 3.892914
59.59000, 3.110229
59.62000, 0.2897950
59.65000, 6.676392
59.68000, 1.497986
59.71000, 4.204010
59.74000, 10.81125
59.77000, 19.44199
59.80000, 21.22086
59.83000, 28.88654
59.86000, 27.69916
59.89000, 28.23511
59.92000, 31.42697
59.95000, 32.00037
59.98000, 30.17581
60.01000, 29.54697
60.04000, 26.42764
60.07000, 22.85773
60.10000, 18.41998
60.13000, 11.46393
60.16000, 5.370972
60.19000, 1.555756
60.22000, 4.660492
60.25000, 13.38287
60.28000, 17.92932
60.31000, 18.95892
60.34000, 22.07263
60.37000, 20.89233
60.40000, 20.28214
60.43000, 23.23309
60.46000, 25.13318
60.49000, 28.54471
60.52000, 26.49677
60.55000, 22.95688
60.58000, 21.62277
60.61000, 16.69672
60.64000, 13.36469
60.67000, 11.70407
60.70000, 10.32941
60.73000, 8.463379
60.76000, 10.94934
60.79000, 9.890259
60.82000, 10.18918
60.85000, 11.48633
60.88000, 11.38718
60.91000, 13.42010
60.94000, 15.66077
60.97000, 20.94891
61.00000, 22.27823
61.03000, 16.77936
61.06000, 5.844299
61.09000, 1.441040
61.12000, 1.724426
61.15000, 2.974091
61.18000, 1.464996
61.21000, 6.732941
61.24000, 17.24768
61.27000, 20.10565
61.30000, 17.30472
61.33000, 12.25949
61.36000, 6.049225
61.39000, 6.793884
61.42000, 2.957581
61.45000, 0.6366880
61.48000, 3.285431
61.51000, 11.05933
61.54000, 18.74512
61.57000, 19.09283
61.60000, 19.49350
61.63000, 19.67511
61.66000, 19.71576
61.69000, 21.04269
61.72000, 24.10519
61.75000, 19.57651
61.78000, 12.69714
61.81000, 12.88019
61.84000, 17.57013
61.87000, 18.35522
61.90000, 20.49469
61.93000, 21.04202
61.96000, 17.20688
61.99000, 21.37949
62.02000, 16.64569
62.05000, 19.42639
62.08000, 20.62085
62.11000, 18.33997
62.14000, 22.13007
62.17000, 20.62927
62.20000, 14.79980
62.23000, 12.58218
62.26000, 12.93393
62.29000, 15.24500
62.32000, 17.95334
62.35000, 17.39066
62.38000, 15.69666
62.41000, 17.14255
62.44000, 16.42712
62.47000, 14.77798
62.50000, 14.46597
62.53000, 13.97659
62.56000, 14.66058
62.59000, 22.26581
62.62000, 20.62738
62.65000, 15.20181
62.68000, 5.904663
62.71000, 1.695862
62.74000, 2.548767
62.77000, 1.064026
62.80000, 5.690277
62.83000, 10.75925
62.86000, 17.00323
62.89000, 22.17343
62.92000, 27.78302
62.95000, 31.29144
62.98000, 29.58289
63.01000, 28.40601
63.04000, 23.31726
63.07000, 21.54349
63.10000, 18.38535
63.13000, 10.62799
63.16000, 7.056335
63.19000, 8.517548
63.22000, 10.74921
63.25000, 11.08664
63.28000, 8.124176
63.31000, 2.444366
63.34000, 9.4910003E-03
63.37000, 0.4696040
63.40000, 6.758057
63.43000, 5.214996
63.46000, 12.05463
63.49000, 6.498230
63.52000, 4.149933
63.55000, 2.136169
63.58000, 9.543549
63.61000, 13.41806
63.64000, 12.31500
63.67000, 9.752319
63.70000, 7.580109
63.73000, 3.249542
63.76000, 0.0000000E+00
##END=



