##NAMES=Calcurmolite
##RRUFFID=R070028
##IDEAL CHEMISTRY=(Ca_1-x_Na_x_)_2_(U^6+^O_2_)_3_(Mo^6+^O_4_)_2_(OH)_6-x_&#183;nH_2_O
##LOCALITY=Gornoe, Transbaikal region, Russia
##OWNER=RRUFF
##SOURCE=Michael Scott
##DESCRIPTION=Lemon-yellow massive
##DIFFRACTION SAMPLE DESCRIPTION=Powder, using Mo radiation
##STATUS=The identification of this mineral is not yet confirmed.
##URL=rruff.info/R070028
4.890000, 0.0000000E+00
4.910000, 21.84610
4.930000, 0.7159760
4.950000, 0.7907050
4.970000, 5.519762
4.990000, 5.145741
5.010000, 32.87574
5.030000, 82.18073
5.050000, 145.9561
5.070000, 223.0607
5.090000, 304.1060
5.110000, 406.8284
5.130000, 515.5240
5.150000, 630.1844
5.170000, 751.8591
5.190000, 891.2224
5.210000, 1024.792
5.230000, 1144.724
5.250000, 1257.783
5.270000, 1361.996
5.290000, 1443.973
5.310000, 1497.041
5.330000, 1518.838
5.350000, 1511.948
5.370000, 1473.127
5.390000, 1403.686
5.410000, 1307.962
5.430000, 1190.188
5.450000, 1071.307
5.470000, 946.5629
5.490000, 827.5954
5.510000, 706.1462
5.530000, 599.5817
5.550000, 500.5014
5.570000, 411.1576
5.590000, 335.4511
5.610000, 267.9317
5.630000, 210.2784
5.650000, 168.1325
5.670000, 134.4367
5.690000, 108.8822
5.710000, 78.38799
5.730000, 56.57108
5.750000, 45.68562
5.770000, 34.04373
5.790000, 23.76243
5.810000, 13.79495
5.830000, 7.424493
5.850000, 1.893540
5.870000, 1.398703
5.890000, 1.397831
5.910000, 1.631892
5.930000, 2.681916
5.950000, 2.361864
5.970000, 0.8400820
5.990000, 0.4222230
6.010000, 0.9751370
6.030000, 3.188251
6.050000, 1.869617
6.070000, 3.161658
6.090000, 3.394654
6.110000, 3.516578
6.130000, 2.793833
6.150000, 1.831800
6.170000, 3.583270
6.190000, 1.202551
6.210000, 1.797076
6.230000, 0.8468510
6.250000, 0.4624870
6.270000, 1.509931
6.290000, 1.891949
6.310000, 0.1366010
6.330000, 0.7658520
6.350000, 1.580011
6.370000, 1.056474
6.390000, 1.136326
6.410000, 5.963549
6.430000, 14.14950
6.450000, 26.34538
6.470000, 36.52858
6.490000, 41.52668
6.510000, 42.71666
6.530000, 46.88266
6.550000, 52.61396
6.570000, 52.68067
6.590000, 50.79537
6.610000, 51.68288
6.630000, 60.18748
6.650000, 66.97903
6.670000, 61.27766
6.690000, 47.25591
6.710000, 43.35315
6.730000, 41.32161
6.750000, 41.57408
6.770000, 43.34070
6.790000, 43.45368
6.810000, 44.50204
6.830000, 47.17783
6.850000, 45.63831
6.870000, 49.08461
6.890000, 48.60688
6.910000, 50.65666
6.930000, 50.02827
6.950000, 49.24411
6.970000, 45.17958
6.990000, 41.44954
7.010000, 40.84698
7.030000, 37.83747
7.050000, 41.43649
7.070000, 36.29285
7.090000, 36.52133
7.110000, 39.66122
7.130000, 38.30352
7.150000, 43.96035
7.170000, 46.06992
7.190000, 44.86207
7.210000, 47.83612
7.230000, 39.97387
7.250000, 27.91543
7.270000, 28.62696
7.290000, 25.83136
7.310000, 23.01972
7.330000, 17.57718
7.350000, 12.02421
7.370000, 10.80803
7.390000, 9.785993
7.410000, 6.709783
7.430000, 1.228005
7.450000, 1.421179
7.470000, 0.6079380
7.490000, 1.027365
7.510000, 0.5510940
7.530000, 1.355254
7.550000, 1.824110
7.570000, 0.9305470
7.590000, 0.2897710
7.610000, 0.2930320
7.630000, 1.888123
7.650000, 3.424310
7.670000, 0.2462370
7.690000, 0.6660860
7.710000, 0.8079730
7.730000, 0.5896460
7.750000, 0.3656320
7.770000, 0.2090610
7.790000, 1.2669000E-02
7.810000, 2.187563
7.830000, 6.534778
7.850000, 4.542529
7.870000, 1.004123
7.890000, 0.6121370
7.910000, 0.3941830
7.930000, 0.3290610
7.950000, 0.5858990
7.970000, 0.3943170
7.990000, 0.3357530
8.010000, 0.1889370
8.030000, 0.6879300
8.050000, 5.139946
8.070000, 6.251930
8.090000, 7.665614
8.110000, 7.569931
8.130000, 1.345546
8.150000, 4.5639998E-03
8.170000, 8.497271
8.190000, 9.841135
8.210000, 10.48811
8.230000, 3.478235
8.250000, 0.8612920
8.270000, 2.3686999E-02
8.290000, 1.684902
8.310000, 1.341815
8.330000, 1.7409001E-02
8.350000, 1.255642
8.370000, 0.6849160
8.390000, 1.124437
8.410000, 1.031286
8.430000, 0.1181910
8.450000, 0.7610550
8.470000, 4.377589
8.490000, 10.21024
8.510000, 12.84506
8.530000, 16.69233
8.550000, 22.31563
8.570000, 21.72834
8.590000, 27.90726
8.610000, 27.54291
8.630000, 20.56986
8.650000, 24.05442
8.670000, 39.74776
8.690000, 49.94301
8.710000, 63.23124
8.730000, 75.94446
8.750000, 79.25755
8.770000, 80.84415
8.790000, 79.89626
8.810000, 81.76906
8.830000, 93.88030
8.850000, 96.64674
8.870000, 99.78423
8.890000, 96.70483
8.910000, 89.08197
8.930000, 84.57243
8.950000, 83.28009
8.970000, 82.12223
8.990000, 76.64954
9.010000, 67.65731
9.030000, 65.55938
9.050000, 65.64293
9.070000, 69.40289
9.090000, 65.19841
9.110000, 56.48144
9.130000, 47.92524
9.150000, 40.28795
9.170000, 35.46851
9.190000, 27.54610
9.210000, 25.58632
9.230000, 26.38387
9.250000, 17.41375
9.270000, 18.99871
9.290000, 11.88203
9.310000, 16.87686
9.330000, 15.89036
9.350000, 14.61987
9.370000, 17.12741
9.390000, 16.08659
9.410000, 16.03634
9.430000, 15.80574
9.450000, 14.12626
9.470000, 11.21097
9.490000, 10.76573
9.510000, 10.78175
9.530000, 12.30908
9.550000, 14.21656
9.570000, 21.72843
9.590000, 21.31044
9.610000, 22.30502
9.630000, 23.71607
9.650000, 18.62953
9.670000, 18.05343
9.690000, 12.21196
9.710000, 7.021353
9.730000, 9.692141
9.750000, 12.14001
9.770000, 10.42553
9.790000, 8.767035
9.810000, 3.714139
9.830000, 2.179263
9.850000, 1.979353
9.870000, 0.2563030
9.890000, 2.154447
9.910000, 1.618888
9.930000, 1.548065
9.950000, 1.640407
9.970000, 0.1305410
9.990000, 2.823275
10.01000, 5.271101
10.03000, 4.366570
10.05000, 12.83842
10.07000, 23.72061
10.09000, 25.19670
10.11000, 33.32709
10.13000, 45.35519
10.15000, 46.11263
10.17000, 58.87842
10.19000, 82.96353
10.21000, 89.38761
10.23000, 94.57311
10.25000, 102.0832
10.27000, 107.8689
10.29000, 120.3782
10.31000, 136.4660
10.33000, 153.0193
10.35000, 157.3139
10.37000, 160.4384
10.39000, 173.1407
10.41000, 180.7060
10.43000, 188.1613
10.45000, 197.7059
10.47000, 208.6566
10.49000, 214.8494
10.51000, 212.4314
10.53000, 207.9500
10.55000, 208.5375
10.57000, 201.9153
10.59000, 196.8582
10.61000, 192.2073
10.63000, 184.8542
10.65000, 174.3679
10.67000, 166.1781
10.69000, 151.2395
10.71000, 137.2864
10.73000, 110.6277
10.75000, 82.75753
10.77000, 60.73221
10.79000, 45.26855
10.81000, 28.88964
10.83000, 18.74117
10.85000, 12.84201
10.87000, 12.47083
10.89000, 10.34994
10.91000, 5.020408
10.93000, 1.029265
10.95000, 5.001191
10.97000, 0.4516820
10.99000, 0.6177320
11.01000, 4.375524
11.03000, 1.629721
11.05000, 4.375292
11.07000, 2.496073
11.09000, 6.6459000E-02
11.11000, 1.464112
11.13000, 1.429086
11.15000, 1.800317
11.17000, 3.908087
11.19000, 3.473445
11.21000, 2.640207
11.23000, 14.89756
11.25000, 28.43404
11.27000, 37.28286
11.29000, 55.70823
11.31000, 73.78561
11.33000, 99.31210
11.35000, 140.8221
11.37000, 186.5462
11.39000, 236.9758
11.41000, 296.7218
11.43000, 360.4298
11.45000, 431.1597
11.47000, 495.7811
11.49000, 552.1355
11.51000, 598.8166
11.53000, 630.4547
11.55000, 649.8451
11.57000, 652.7961
11.59000, 635.8165
11.61000, 601.9276
11.63000, 552.5084
11.65000, 503.7033
11.67000, 453.4485
11.69000, 397.0550
11.71000, 349.6988
11.73000, 299.0021
11.75000, 268.1682
11.77000, 234.9237
11.79000, 222.6099
11.81000, 215.1588
11.83000, 209.9521
11.85000, 204.9662
11.87000, 208.5831
11.89000, 207.4193
11.91000, 213.1389
11.93000, 222.6616
11.95000, 235.7804
11.97000, 251.1796
11.99000, 269.7482
12.01000, 290.4154
12.03000, 315.4710
12.05000, 338.1993
12.07000, 367.8647
12.09000, 394.9666
12.11000, 421.4653
12.13000, 444.5713
12.15000, 458.4666
12.17000, 468.9548
12.19000, 472.0535
12.21000, 470.7980
12.23000, 459.0202
12.25000, 443.7078
12.27000, 424.6896
12.29000, 400.8271
12.31000, 383.2013
12.33000, 364.8430
12.35000, 351.9625
12.37000, 338.3997
12.39000, 337.8174
12.41000, 342.5942
12.43000, 356.4587
12.45000, 382.3102
12.47000, 406.3192
12.49000, 432.4171
12.51000, 456.7835
12.53000, 479.3595
12.55000, 490.6044
12.57000, 508.7292
12.59000, 536.0024
12.61000, 556.2643
12.63000, 580.2369
12.65000, 608.6984
12.67000, 646.4180
12.69000, 686.0104
12.71000, 737.7700
12.73000, 788.6391
12.75000, 849.2493
12.77000, 900.4089
12.79000, 925.4791
12.81000, 937.3597
12.83000, 923.9165
12.85000, 889.8286
12.87000, 864.3152
12.89000, 828.0372
12.91000, 780.9330
12.93000, 738.1270
12.95000, 702.0810
12.97000, 678.3871
12.99000, 651.8367
13.01000, 641.0295
13.03000, 637.7238
13.05000, 644.5001
13.07000, 670.4396
13.09000, 690.4830
13.11000, 699.2689
13.13000, 702.4667
13.15000, 689.6432
13.17000, 660.5195
13.19000, 620.5828
13.21000, 573.3326
13.23000, 519.8481
13.25000, 460.6402
13.27000, 411.5680
13.29000, 363.0930
13.31000, 302.7847
13.33000, 254.4998
13.35000, 211.3262
13.37000, 174.5958
13.39000, 135.5942
13.41000, 101.0250
13.43000, 75.99121
13.45000, 59.42229
13.47000, 55.57722
13.49000, 44.91200
13.51000, 37.79196
13.53000, 36.48324
13.55000, 32.55683
13.57000, 25.74012
13.59000, 16.08345
13.61000, 5.342148
13.63000, 1.239556
13.65000, 2.436821
13.67000, 13.03921
13.69000, 16.72555
13.71000, 17.97648
13.73000, 16.21685
13.75000, 14.22694
13.77000, 5.740633
13.79000, 0.6370250
13.81000, 3.711885
13.83000, 1.594314
13.85000, 3.594871
13.87000, 1.551772
13.89000, 3.370617
13.91000, 0.4463650
13.93000, 0.9659930
13.95000, 3.653802
13.97000, 1.280199
13.99000, 2.030175
14.01000, 0.7459490
14.03000, 2.843778
14.05000, 1.080624
14.07000, 0.1448860
14.09000, 0.9981790
14.11000, 3.607607
14.13000, 2.077739
14.15000, 2.726548
14.17000, 1.664656
14.19000, 1.903208
14.21000, 7.284599
14.23000, 27.04818
14.25000, 40.20154
14.27000, 54.45707
14.29000, 64.90387
14.31000, 75.75077
14.33000, 81.33475
14.35000, 86.99753
14.37000, 94.96018
14.39000, 105.9561
14.41000, 126.9553
14.43000, 132.3994
14.45000, 153.7985
14.47000, 170.0417
14.49000, 156.2731
14.51000, 158.8726
14.53000, 174.1208
14.55000, 183.4417
14.57000, 179.6775
14.59000, 184.1154
14.61000, 184.4490
14.63000, 177.2256
14.65000, 176.2939
14.67000, 180.1520
14.69000, 182.2073
14.71000, 179.4864
14.73000, 167.7112
14.75000, 165.2090
14.77000, 163.2683
14.79000, 159.8577
14.81000, 157.9156
14.83000, 154.5075
14.85000, 152.1935
14.87000, 148.0373
14.89000, 144.8042
14.91000, 144.4892
14.93000, 135.3672
14.95000, 130.7575
14.97000, 131.3022
14.99000, 129.9700
15.01000, 132.1324
15.03000, 127.5460
15.05000, 129.2941
15.07000, 129.8229
15.09000, 131.2110
15.11000, 141.2941
15.13000, 149.6951
15.15000, 147.8495
15.17000, 147.2858
15.19000, 161.9404
15.21000, 166.8769
15.23000, 163.7434
15.25000, 169.2787
15.27000, 168.9223
15.29000, 168.6493
15.31000, 171.5620
15.33000, 165.8929
15.35000, 164.1955
15.37000, 158.2419
15.39000, 154.1110
15.41000, 151.1912
15.43000, 144.9483
15.45000, 134.4642
15.47000, 136.0681
15.49000, 136.2832
15.51000, 121.1170
15.53000, 104.5006
15.55000, 99.60361
15.57000, 94.97106
15.59000, 74.56409
15.61000, 62.21713
15.63000, 58.52472
15.65000, 45.24628
15.67000, 30.98675
15.69000, 26.16912
15.71000, 26.67325
15.73000, 29.10963
15.75000, 31.40686
15.77000, 26.78842
15.79000, 18.40320
15.81000, 11.75989
15.83000, 8.626790
15.85000, 0.1046800
15.87000, 7.595470
15.89000, 3.888651
15.91000, 7.394488
15.93000, 10.67800
15.95000, 13.75983
15.97000, 12.08259
15.99000, 6.841066
16.01000, 10.89297
16.03000, 13.47038
16.05000, 3.721972
16.07000, 1.872659
16.09000, 2.018202
16.11000, 1.363885
16.13000, 3.818592
16.15000, 7.722139
16.17000, 13.30789
16.19000, 9.968479
16.21000, 7.312904
16.23000, 0.9626450
16.25000, 2.639581
16.27000, 3.111954
16.29000, 4.689508
16.31000, 9.252001
16.33000, 11.12307
16.35000, 16.25344
16.37000, 21.30763
16.39000, 18.01206
16.41000, 13.71247
16.43000, 9.497941
16.45000, 9.189037
16.47000, 8.559163
16.49000, 9.488783
16.51000, 10.75364
16.53000, 12.13129
16.55000, 12.93332
16.57000, 7.334582
16.59000, 0.2619040
16.61000, 0.5498230
16.63000, 0.7273050
16.65000, 0.8982850
16.67000, 0.2634490
16.69000, 7.9538003E-02
16.71000, 0.3536480
16.73000, 1.062341
16.75000, 0.3763360
16.77000, 0.3888940
16.79000, 2.018197
16.81000, 3.675879
16.83000, 2.842995
16.85000, 1.679170
16.87000, 0.1189340
16.89000, 2.999426
16.91000, 5.686156
16.93000, 2.708835
16.95000, 1.068969
16.97000, 0.3379110
16.99000, 1.252645
17.01000, 0.4576150
17.03000, 0.3985690
17.05000, 1.1353000E-02
17.07000, 5.096880
17.09000, 9.575235
17.11000, 7.855496
17.13000, 0.2726850
17.15000, 0.1154630
17.17000, 0.4573850
17.19000, 0.1378850
17.21000, 0.4603190
17.23000, 6.0970001E-02
17.25000, 1.077867
17.27000, 0.3859970
17.29000, 1.075056
17.31000, 3.636298
17.33000, 1.8529000E-02
17.35000, 0.1703860
17.37000, 2.687968
17.39000, 6.646630
17.41000, 8.858330
17.43000, 7.774013
17.45000, 9.232837
17.47000, 9.449264
17.49000, 6.837512
17.51000, 0.1227150
17.53000, 2.100498
17.55000, 0.8766390
17.57000, 0.4172720
17.59000, 0.6773110
17.61000, 2.630234
17.63000, 1.612037
17.65000, 3.547378
17.67000, 7.130990
17.69000, 4.227310
17.71000, 0.6827320
17.73000, 0.1402200
17.75000, 0.5694940
17.77000, 0.5770710
17.79000, 1.0025000E-02
17.81000, 1.883753
17.83000, 1.625499
17.85000, 5.499795
17.87000, 6.8520002E-02
17.89000, 0.7325470
17.91000, 1.063861
17.93000, 3.188290
17.95000, 4.207873
17.97000, 0.7296730
17.99000, 1.045662
18.01000, 0.6348150
18.03000, 0.1985340
18.05000, 0.5874890
18.07000, 0.2499150
18.09000, 0.2835590
18.11000, 1.245103
18.13000, 0.8543500
18.15000, 0.3263140
18.17000, 0.5800320
18.19000, 0.4544430
18.21000, 0.6381220
18.23000, 0.6680120
18.25000, 0.7336800
18.27000, 1.665394
18.29000, 2.074331
18.31000, 0.2148360
18.33000, 6.2565997E-02
18.35000, 0.2152990
18.37000, 0.7112620
18.39000, 3.580569
18.41000, 12.07001
18.43000, 27.46194
18.45000, 36.29128
18.47000, 39.96593
18.49000, 49.36028
18.51000, 48.17166
18.53000, 47.58574
18.55000, 52.84220
18.57000, 54.34560
18.59000, 55.18114
18.61000, 58.74662
18.63000, 66.02319
18.65000, 70.14477
18.67000, 62.72363
18.69000, 56.02533
18.71000, 56.64880
18.73000, 53.68024
18.75000, 50.47102
18.77000, 46.49255
18.79000, 35.74294
18.81000, 32.83598
18.83000, 33.47429
18.85000, 36.13829
18.87000, 38.70598
18.89000, 33.20981
18.91000, 27.28418
18.93000, 29.19120
18.95000, 36.81635
18.97000, 44.97264
18.99000, 37.90131
19.01000, 34.71515
19.03000, 34.10657
19.05000, 29.63526
19.07000, 27.91483
19.09000, 26.64477
19.11000, 26.31943
19.13000, 31.15657
19.15000, 28.89418
19.17000, 27.80137
19.19000, 26.22290
19.21000, 25.02562
19.23000, 27.46916
19.25000, 24.01188
19.27000, 29.05301
19.29000, 26.02020
19.31000, 30.18848
19.33000, 21.88065
19.35000, 20.28690
19.37000, 17.86006
19.39000, 11.63256
19.41000, 10.97048
19.43000, 22.47886
19.45000, 29.84761
19.47000, 27.04337
19.49000, 24.92091
19.51000, 23.25436
19.53000, 21.93621
19.55000, 12.83793
19.57000, 8.043072
19.59000, 9.513266
19.61000, 15.65213
19.63000, 19.88294
19.65000, 18.81962
19.67000, 19.07064
19.69000, 20.58667
19.71000, 15.77923
19.73000, 12.90352
19.75000, 11.23099
19.77000, 5.096467
19.79000, 4.460897
19.81000, 0.8573200
19.83000, 3.248271
19.85000, 2.446105
19.87000, 2.164991
19.89000, 1.471886
19.91000, 0.7180820
19.93000, 2.205277
19.95000, 8.5015997E-02
19.97000, 1.950941
19.99000, 0.8724060
20.01000, 2.201709
20.03000, 1.669750
20.05000, 2.988428
20.07000, 3.100840
20.09000, 2.056921
20.11000, 9.633864
20.13000, 19.87156
20.15000, 24.19193
20.17000, 28.84468
20.19000, 27.15935
20.21000, 27.39410
20.23000, 34.53363
20.25000, 40.80739
20.27000, 42.63918
20.29000, 43.04979
20.31000, 34.82449
20.33000, 28.28043
20.35000, 23.85381
20.37000, 18.59712
20.39000, 15.15355
20.41000, 12.77085
20.43000, 12.68279
20.45000, 14.49294
20.47000, 20.97438
20.49000, 27.30028
20.51000, 28.46488
20.53000, 37.64126
20.55000, 43.59065
20.57000, 48.49626
20.59000, 55.79169
20.61000, 65.27410
20.63000, 79.05640
20.65000, 100.2406
20.67000, 124.3441
20.69000, 143.6641
20.71000, 162.3810
20.73000, 180.7939
20.75000, 198.1664
20.77000, 215.0644
20.79000, 223.3801
20.81000, 224.2176
20.83000, 221.4199
20.85000, 224.3526
20.87000, 213.5097
20.89000, 221.1410
20.91000, 219.3963
20.93000, 213.5556
20.95000, 202.1320
20.97000, 196.7934
20.99000, 183.6989
21.01000, 176.0905
21.03000, 177.2755
21.05000, 171.3579
21.07000, 162.6229
21.09000, 159.3532
21.11000, 155.4772
21.13000, 160.2950
21.15000, 152.9058
21.17000, 156.6369
21.19000, 159.6711
21.21000, 150.1337
21.23000, 151.7844
21.25000, 146.2955
21.27000, 141.1850
21.29000, 139.3467
21.31000, 131.4296
21.33000, 127.5702
21.35000, 129.5210
21.37000, 128.5954
21.39000, 134.3524
21.41000, 132.1035
21.43000, 127.6378
21.45000, 122.0371
21.47000, 117.1560
21.49000, 110.0776
21.51000, 112.1427
21.53000, 106.5838
21.55000, 102.0508
21.57000, 84.56883
21.59000, 90.47328
21.61000, 83.12209
21.63000, 72.56903
21.65000, 71.70789
21.67000, 71.36015
21.69000, 70.84091
21.71000, 67.84513
21.73000, 71.87800
21.75000, 60.77588
21.77000, 54.12986
21.79000, 49.49325
21.81000, 48.55740
21.83000, 59.52594
21.85000, 62.52725
21.87000, 51.53986
21.89000, 44.59572
21.91000, 44.50616
21.93000, 38.47830
21.95000, 29.82027
21.97000, 33.19345
21.99000, 34.99252
22.01000, 34.89476
22.03000, 30.15219
22.05000, 34.30149
22.07000, 34.76849
22.09000, 37.84288
22.11000, 43.18972
22.13000, 47.25439
22.15000, 53.54697
22.17000, 58.37371
22.19000, 61.11671
22.21000, 64.90082
22.23000, 65.33907
22.25000, 77.43582
22.27000, 91.04216
22.29000, 98.27568
22.31000, 97.14374
22.33000, 89.47530
22.35000, 85.86269
22.37000, 85.63136
22.39000, 87.49162
22.41000, 84.33876
22.43000, 94.01180
22.45000, 89.50289
22.47000, 84.18950
22.49000, 75.94334
22.51000, 77.82685
22.53000, 79.76843
22.55000, 72.16129
22.57000, 66.57909
22.59000, 56.38420
22.61000, 50.43215
22.63000, 44.76491
22.65000, 41.65847
22.67000, 38.08965
22.69000, 34.14397
22.71000, 25.80571
22.73000, 22.98577
22.75000, 20.85719
22.77000, 24.46801
22.79000, 37.04146
22.81000, 59.10593
22.83000, 76.23525
22.85000, 78.02924
22.87000, 72.29771
22.89000, 80.58862
22.91000, 89.72209
22.93000, 89.78128
22.95000, 97.19781
22.97000, 107.4588
22.99000, 112.3379
23.01000, 117.3640
23.03000, 116.1685
23.05000, 113.9315
23.07000, 115.4538
23.09000, 116.1098
23.11000, 116.8210
23.13000, 110.2512
23.15000, 109.6659
23.17000, 105.3046
23.19000, 102.9278
23.21000, 98.13184
23.23000, 94.88962
23.25000, 94.41581
23.27000, 89.41716
23.29000, 74.35744
23.31000, 71.85103
23.33000, 70.01082
23.35000, 71.28560
23.37000, 57.28556
23.39000, 36.04057
23.41000, 27.04515
23.43000, 27.81836
23.45000, 27.58064
23.47000, 32.64801
23.49000, 37.37634
23.51000, 34.68063
23.53000, 21.21393
23.55000, 20.85816
23.57000, 21.76131
23.59000, 10.76846
23.61000, 17.80548
23.63000, 30.62436
23.65000, 24.84319
23.67000, 19.84879
23.69000, 17.12244
23.71000, 10.65431
23.73000, 11.87702
23.75000, 13.68690
23.77000, 3.729724
23.79000, 0.9748590
23.81000, 2.439950
23.83000, 1.086303
23.85000, 0.6119460
23.87000, 2.642138
23.89000, 1.684283
23.91000, 0.3463590
23.93000, 0.3747070
23.95000, 2.528250
23.97000, 0.8683330
23.99000, 1.034375
24.01000, 1.452939
24.03000, 2.280916
24.05000, 1.276145
24.07000, 2.492355
24.09000, 1.526768
24.11000, 7.0580002E-03
24.13000, 1.884870
24.15000, 2.171057
24.17000, 0.6991870
24.19000, 1.230327
24.21000, 1.271736
24.23000, 1.901350
24.25000, 1.251226
24.27000, 1.412356
24.29000, 0.4965100
24.31000, 1.002998
24.33000, 0.2802440
24.35000, 0.5529480
24.37000, 0.9506810
24.39000, 0.8819690
24.41000, 0.1094570
24.43000, 0.2321730
24.45000, 0.9377700
24.47000, 0.4341050
24.49000, 0.1622120
24.51000, 1.940943
24.53000, 0.4581510
24.55000, 5.770333
24.57000, 2.890026
24.59000, 7.435447
24.61000, 16.84365
24.63000, 25.01273
24.65000, 24.13707
24.67000, 30.88284
24.69000, 30.90526
24.71000, 26.27049
24.73000, 28.40461
24.75000, 33.72607
24.77000, 35.24147
24.79000, 38.02940
24.81000, 42.17241
24.83000, 40.98924
24.85000, 39.15126
24.87000, 34.83051
24.89000, 31.59547
24.91000, 29.32605
24.93000, 33.49205
24.95000, 34.29948
24.97000, 21.32834
24.99000, 17.77062
25.01000, 23.91227
25.03000, 27.65722
25.05000, 24.52840
25.07000, 21.06687
25.09000, 22.00743
25.11000, 17.46916
25.13000, 17.65800
25.15000, 17.34208
25.17000, 10.93619
25.19000, 8.271480
25.21000, 24.63879
25.23000, 35.73925
25.25000, 38.76363
25.27000, 37.79696
25.29000, 45.12914
25.31000, 48.75829
25.33000, 46.68930
25.35000, 36.11017
25.37000, 28.75076
25.39000, 24.71006
25.41000, 20.30512
25.43000, 26.38892
25.45000, 30.14546
25.47000, 37.54356
25.49000, 45.02015
25.51000, 45.06339
25.53000, 40.50174
25.55000, 35.54099
25.57000, 24.79556
25.59000, 28.79240
25.61000, 44.30564
25.63000, 60.99270
25.65000, 67.25611
25.67000, 67.30067
25.69000, 72.14066
25.71000, 65.23378
25.73000, 60.85108
25.75000, 56.06256
25.77000, 55.96329
25.79000, 51.34123
25.81000, 59.76745
25.83000, 66.46043
25.85000, 73.48952
25.87000, 70.34370
25.89000, 66.11990
25.91000, 68.87498
25.93000, 70.86516
25.95000, 59.68934
25.97000, 54.51039
25.99000, 44.62337
26.01000, 33.38028
26.03000, 22.99010
26.05000, 15.78862
26.07000, 20.41393
26.09000, 27.42048
26.11000, 31.23454
26.13000, 32.70985
26.15000, 29.93794
26.17000, 32.13200
26.19000, 36.78839
26.21000, 41.56746
26.23000, 49.35818
26.25000, 48.25127
26.27000, 47.91576
26.29000, 50.23528
26.31000, 46.24904
26.33000, 47.47167
26.35000, 39.89196
26.37000, 36.82217
26.39000, 47.20921
26.41000, 58.98436
26.43000, 65.40923
26.45000, 78.08220
26.47000, 69.27596
26.49000, 62.80725
26.51000, 64.05014
26.53000, 60.68122
26.55000, 64.55611
26.57000, 67.83654
26.59000, 72.06832
26.61000, 71.14976
26.63000, 69.26376
26.65000, 67.04424
26.67000, 75.87022
26.69000, 62.84721
26.71000, 50.02128
26.73000, 54.41987
26.75000, 67.78569
26.77000, 62.14521
26.79000, 57.38027
26.81000, 43.48066
26.83000, 29.69289
26.85000, 22.07446
26.87000, 24.25055
26.89000, 22.03227
26.91000, 29.52422
26.93000, 29.75705
26.95000, 26.75047
26.97000, 24.31624
26.99000, 16.11452
27.01000, 0.9722360
27.03000, 5.943445
27.05000, 19.46095
27.07000, 28.04488
27.09000, 42.59317
27.11000, 49.62980
27.13000, 48.64986
27.15000, 49.12412
27.17000, 46.00880
27.19000, 32.58772
27.21000, 30.37282
27.23000, 22.97226
27.25000, 18.34393
27.27000, 9.220808
27.29000, 6.171800
27.31000, 16.41018
27.33000, 26.51154
27.35000, 23.89119
27.37000, 24.86017
27.39000, 32.03594
27.41000, 41.31999
27.43000, 40.03209
27.45000, 40.41427
27.47000, 37.45251
27.49000, 39.56788
27.51000, 29.30127
27.53000, 16.32565
27.55000, 9.063278
27.57000, 11.88970
27.59000, 13.76801
27.61000, 19.64154
27.63000, 13.75298
27.65000, 6.030379
27.67000, 13.04179
27.69000, 7.691472
27.71000, 14.40741
27.73000, 7.513722
27.75000, 9.288796
27.77000, 9.881886
27.79000, 6.911837
27.81000, 2.458586
27.83000, 0.3966670
27.85000, 1.575624
27.87000, 0.4656050
27.89000, 1.644021
27.91000, 5.003375
27.93000, 1.471356
27.95000, 0.7016010
27.97000, 1.645521
27.99000, 1.531015
28.01000, 3.220428
28.03000, 9.238810
28.05000, 3.218369
28.07000, 11.26689
28.09000, 0.6155340
28.11000, 15.80811
28.13000, 11.94345
28.15000, 6.023514
28.17000, 0.2554680
28.19000, 1.907584
28.21000, 9.129608
28.23000, 7.479101
28.25000, 15.39109
28.27000, 23.48876
28.29000, 15.63992
28.31000, 13.63762
28.33000, 14.86076
28.35000, 23.44249
28.37000, 32.44260
28.39000, 28.05736
28.41000, 21.74387
28.43000, 5.436609
28.45000, 1.091567
28.47000, 1.506086
28.49000, 1.057503
28.51000, 0.4443530
28.53000, 0.6595930
28.55000, 0.1147680
28.57000, 0.2926120
28.59000, 0.8848190
28.61000, 0.6880400
28.63000, 2.581663
28.65000, 8.765011
28.67000, 1.088015
28.69000, 0.5581100
28.71000, 0.9737600
28.73000, 1.536962
28.75000, 7.973567
28.77000, 23.41696
28.79000, 33.31169
28.81000, 27.04212
28.83000, 17.91659
28.85000, 12.40430
28.87000, 8.269322
28.89000, 0.1557490
28.91000, 0.9568740
28.93000, 1.580468
28.95000, 1.561027
28.97000, 1.552963
28.99000, 5.210777
29.01000, 15.09435
29.03000, 26.48773
29.05000, 42.05725
29.07000, 53.64766
29.09000, 50.99270
29.11000, 35.87957
29.13000, 28.28904
29.15000, 24.69826
29.17000, 14.43517
29.19000, 1.014892
29.21000, 3.351630
29.23000, 8.186316
29.25000, 5.916090
29.27000, 14.83029
29.29000, 30.47111
29.31000, 52.19371
29.33000, 59.45484
29.35000, 44.83823
29.37000, 27.86902
29.39000, 27.99800
29.41000, 39.54837
29.43000, 36.00703
29.45000, 36.97398
29.47000, 52.23724
29.49000, 54.01867
29.51000, 52.40046
29.53000, 45.96851
29.55000, 34.29296
29.57000, 23.17055
29.59000, 27.66645
29.61000, 30.78169
29.63000, 28.95207
29.65000, 30.61677
29.67000, 20.45074
29.69000, 19.75698
29.71000, 18.61046
29.73000, 5.291359
29.75000, 7.224216
29.77000, 9.557297
29.79000, 16.82547
29.81000, 26.80197
29.83000, 31.65162
29.85000, 31.29551
29.87000, 37.76670
29.89000, 36.99207
29.91000, 26.48369
29.93000, 19.12142
29.95000, 11.03145
29.97000, 6.601782
29.99000, 14.15247
30.01000, 18.41029
30.03000, 24.27250
30.05000, 26.75711
30.07000, 29.97846
30.09000, 29.16239
30.11000, 31.30127
30.13000, 30.16408
30.15000, 30.36051
30.17000, 29.49298
30.19000, 26.68633
30.21000, 24.95112
30.23000, 15.55219
30.25000, 14.23888
30.27000, 3.901057
30.29000, 0.3285330
30.31000, 0.2026450
30.33000, 0.1844900
30.35000, 15.23031
30.37000, 26.93384
30.39000, 15.80567
30.41000, 7.861925
30.43000, 14.75756
30.45000, 22.87691
30.47000, 17.98485
30.49000, 12.66944
30.51000, 12.24068
30.53000, 15.63556
30.55000, 11.40504
30.57000, 18.39004
30.59000, 29.84974
30.61000, 36.85817
30.63000, 25.40539
30.65000, 13.97643
30.67000, 16.43068
30.69000, 15.29735
30.71000, 20.40573
30.73000, 22.30491
30.75000, 18.22489
30.77000, 11.74266
30.79000, 7.941200
30.81000, 1.330474
30.83000, 1.875029
30.85000, 0.6674030
30.87000, 0.3494430
30.89000, 1.563009
30.91000, 0.8501410
30.93000, 0.5851940
30.95000, 1.309749
30.97000, 0.8867120
30.99000, 0.7939810
31.01000, 1.592648
31.03000, 15.90508
31.05000, 16.02522
31.07000, 21.87469
31.09000, 30.04917
31.11000, 27.38337
31.13000, 19.20055
31.15000, 10.68755
31.17000, 1.920644
31.19000, 6.209458
31.21000, 24.19223
31.23000, 18.95042
31.25000, 29.70587
31.27000, 45.86753
31.29000, 38.86706
31.31000, 44.98045
31.33000, 44.77096
31.35000, 43.51133
31.37000, 52.26899
31.39000, 62.10539
31.41000, 62.24138
31.43000, 62.49979
31.45000, 62.83261
31.47000, 62.99776
31.49000, 50.82846
31.51000, 53.03336
31.53000, 51.10278
31.55000, 44.13755
31.57000, 45.32079
31.59000, 46.81359
31.61000, 43.99925
31.63000, 41.52410
31.65000, 34.63268
31.67000, 21.79331
31.69000, 26.32358
31.71000, 34.33495
31.73000, 28.78020
31.75000, 37.86462
31.77000, 44.75813
31.79000, 47.09274
31.81000, 37.75719
31.83000, 29.82283
31.85000, 24.34804
31.87000, 13.07813
31.89000, 16.36230
31.91000, 15.31244
31.93000, 23.80978
31.95000, 54.68591
31.97000, 52.12511
31.99000, 49.86929
32.01000, 59.76334
32.03000, 48.50629
32.05000, 41.44731
32.07000, 32.63028
32.09000, 29.53381
32.11000, 29.33142
32.13000, 27.86901
32.15000, 33.79636
32.17000, 34.26341
32.19000, 26.08346
32.21000, 15.90288
32.23000, 13.55963
32.25000, 14.50263
32.27000, 11.88472
32.29000, 20.96453
32.31000, 19.21660
32.33000, 24.41517
32.35000, 39.08239
32.37000, 41.19349
32.39000, 44.51517
32.41000, 34.44745
32.43000, 26.36243
32.45000, 22.86305
32.47000, 28.30169
32.49000, 22.85931
32.51000, 23.92301
32.53000, 26.15768
32.55000, 28.09807
32.57000, 34.42941
32.59000, 32.91429
32.61000, 37.33597
32.63000, 36.10303
32.65000, 36.20060
32.67000, 40.61259
32.69000, 52.11606
32.71000, 45.93935
32.73000, 49.37363
32.75000, 48.29482
32.77000, 45.96736
32.79000, 50.26460
32.81000, 60.53843
32.83000, 51.01776
32.85000, 44.67980
32.87000, 28.01639
32.89000, 23.88603
32.91000, 28.84898
32.93000, 31.34408
32.95000, 34.61550
32.97000, 34.29164
32.99000, 42.89280
33.01000, 33.62576
33.03000, 25.10411
33.05000, 29.31154
33.07000, 26.07069
33.09000, 16.99307
33.11000, 19.43416
33.13000, 21.74921
33.15000, 17.91811
33.17000, 21.30379
33.19000, 15.58183
33.21000, 16.29734
33.23000, 13.85307
33.25000, 0.5271960
33.27000, 0.9372280
33.29000, 6.586791
33.31000, 13.75997
33.33000, 1.189877
33.35000, 1.109576
33.37000, 7.887882
33.39000, 12.31312
33.41000, 13.21889
33.43000, 13.92414
33.45000, 14.39508
33.47000, 12.25145
33.49000, 11.84659
33.51000, 6.044466
33.53000, 2.920087
33.55000, 0.9672270
33.57000, 1.352145
33.59000, 2.070851
33.61000, 23.27123
33.63000, 25.36117
33.65000, 18.63843
33.67000, 24.51320
33.69000, 24.87056
33.71000, 15.95157
33.73000, 15.05521
33.75000, 16.58183
33.77000, 6.132123
33.79000, 0.8641590
33.81000, 0.3422650
33.83000, 12.16225
33.85000, 19.94678
33.87000, 30.01676
33.89000, 27.99975
33.91000, 22.23499
33.93000, 15.03801
33.95000, 8.611105
33.97000, 1.113928
33.99000, 0.3279020
34.01000, 0.2726890
34.03000, 0.3200080
34.05000, 20.30639
34.07000, 26.66064
34.09000, 31.06807
34.11000, 34.96548
34.13000, 20.03087
34.15000, 0.9317850
34.17000, 11.50732
34.19000, 13.45604
34.21000, 8.181285
34.23000, 9.781785
34.25000, 9.005733
34.27000, 5.740767
34.29000, 3.688182
34.31000, 0.6831780
34.33000, 0.2038980
34.35000, 1.970549
34.37000, 8.513704
34.39000, 14.92260
34.41000, 17.05523
34.43000, 25.92890
34.45000, 20.29280
34.47000, 27.15410
34.49000, 36.33295
34.51000, 26.07294
34.53000, 9.602202
34.55000, 10.64639
34.57000, 9.430339
34.59000, 11.70731
34.61000, 11.69219
34.63000, 19.00189
34.65000, 18.80818
34.67000, 10.39684
34.69000, 5.163600
34.71000, 11.55399
34.73000, 4.165720
34.75000, 0.4669870
34.77000, 9.432107
34.79000, 9.617643
34.81000, 2.4783000E-02
34.83000, 3.625054
34.85000, 1.681635
34.87000, 0.9284620
34.89000, 2.2094000E-02
34.91000, 5.404046
34.93000, 6.820117
34.95000, 8.337046
34.97000, 5.599589
34.99000, 5.824748
35.01000, 6.710495
35.03000, 9.890718
35.05000, 8.916213
35.07000, 1.0991000E-02
35.09000, 0.0000000E+00
##END=



