##NAMES=Copper
##RRUFFID=R061078
##IDEAL CHEMISTRY=Cu
##LOCALITY=Afton mine, Kamloops, British Columbia, Canada
##OWNER=RRUFF
##SOURCE=Lloyd Twaites
##DESCRIPTION=Rose-brass colored massive metallic
##DIFFRACTION SAMPLE DESCRIPTION=Powder, using Mo radiation
##STATUS=The identification of this mineral has been confirmed by X-ray diffraction.
##URL=rruff.info/R061078
##CELL PARAMETERS=a: 3.6215(7) b: 3.6215(7) c: 3.6215(7) alpha: 90 beta: 90 gamma: 90 volume: 47.50(3) crystal system: cubic
6.000000, 0.0000000E+00
6.030000, 3.345411
6.060000, 8.443442
6.090000, 8.536559
6.120000, 5.5459999E-03
6.150000, 9.1821000E-02
6.180000, 0.5164260
6.210000, 1.919158
6.240000, 6.793085
6.270000, 15.00629
6.300000, 21.39978
6.330000, 21.52754
6.360000, 14.71695
6.390000, 8.594913
6.420000, 2.977566
6.450000, 4.665737
6.480000, 7.199512
6.510000, 10.46969
6.540000, 12.72382
6.570000, 11.30927
6.600000, 12.30312
6.630000, 14.88106
6.660000, 18.61538
6.690000, 21.09574
6.720000, 24.15123
6.750000, 26.40426
6.780000, 29.74966
6.810000, 32.54642
6.840000, 33.79462
6.870000, 35.97457
6.900000, 36.46836
6.930000, 38.42917
6.960000, 37.26263
6.990000, 37.77708
7.020000, 36.86221
7.050000, 36.55661
7.080000, 35.91607
7.110000, 32.77362
7.140000, 32.91730
7.170000, 33.64952
7.200000, 26.80462
7.230000, 26.28998
7.260000, 28.25810
7.290000, 27.38147
7.320000, 26.10060
7.350000, 24.98306
7.380000, 28.71436
7.410000, 33.28914
7.440000, 38.51095
7.470000, 37.56554
7.500000, 30.63857
7.530000, 27.46606
7.560000, 30.06498
7.590000, 33.86483
7.620000, 30.48140
7.650000, 26.85940
7.680000, 26.17354
7.710000, 21.80278
7.740000, 21.49008
7.770000, 25.19080
7.800000, 25.38355
7.830000, 20.46640
7.860000, 14.02594
7.890000, 11.08336
7.920000, 14.16927
7.950000, 18.76293
7.980000, 25.20218
8.010000, 29.03244
8.040000, 34.33730
8.070000, 34.60175
8.100000, 29.62604
8.130000, 26.04749
8.160000, 27.65820
8.190000, 26.69341
8.220000, 20.13430
8.250000, 19.06799
8.280000, 22.03637
8.310000, 21.10572
8.340000, 23.60614
8.370000, 27.63560
8.400000, 30.57715
8.430000, 29.36479
8.460000, 20.35785
8.490000, 13.96593
8.520000, 10.00466
8.550000, 10.18742
8.580000, 14.97603
8.610000, 17.53857
8.640000, 15.81294
8.670000, 16.39209
8.700000, 14.86299
8.730000, 14.35955
8.760000, 16.49070
8.790000, 15.80247
8.820000, 15.24175
8.850000, 18.42553
8.880000, 25.05967
8.910000, 28.32820
8.940000, 26.37054
8.970000, 21.61285
9.000000, 17.23569
9.030000, 16.50550
9.060000, 19.03897
9.090000, 15.55286
9.120000, 13.68979
9.150000, 18.75318
9.180000, 20.28427
9.210000, 20.01057
9.240000, 23.32136
9.270000, 24.11849
9.300000, 21.11017
9.330000, 18.31250
9.360000, 15.46856
9.390000, 15.45765
9.420000, 16.70547
9.450000, 18.67674
9.480000, 19.54871
9.510000, 23.86657
9.540000, 27.22826
9.570000, 28.98373
9.600000, 30.69811
9.630000, 31.65084
9.660000, 35.19983
9.690000, 39.11411
9.720000, 38.58062
9.750000, 38.46678
9.780000, 36.02416
9.810000, 36.07471
9.840000, 40.80299
9.870000, 46.37540
9.900000, 48.12173
9.930000, 45.88758
9.960000, 47.20052
9.990000, 46.28404
10.02000, 42.03565
10.05000, 39.86392
10.08000, 40.42673
10.11000, 42.16432
10.14000, 45.75838
10.17000, 43.29867
10.20000, 38.29789
10.23000, 30.97976
10.26000, 26.06610
10.29000, 26.10273
10.32000, 24.36847
10.35000, 21.42698
10.38000, 20.23332
10.41000, 23.98983
10.44000, 25.92002
10.47000, 28.34033
10.50000, 29.13950
10.53000, 26.24153
10.56000, 23.19330
10.59000, 16.27669
10.62000, 9.564981
10.65000, 10.48277
10.68000, 12.82588
10.71000, 13.59629
10.74000, 14.53483
10.77000, 11.87248
10.80000, 8.291188
10.83000, 5.179802
10.86000, 2.136222
10.89000, 3.781488
10.92000, 3.475107
10.95000, 2.887506
10.98000, 5.164623
11.01000, 5.197237
11.04000, 6.198838
11.07000, 4.355335
11.10000, 3.717202
11.13000, 4.852360
11.16000, 3.632994
11.19000, 4.537806
11.22000, 4.107666
11.25000, 8.011523
11.28000, 13.26837
11.31000, 16.74508
11.34000, 17.69568
11.37000, 13.17707
11.40000, 13.27719
11.43000, 11.90802
11.46000, 13.01261
11.49000, 13.23698
11.52000, 12.70806
11.55000, 12.61484
11.58000, 13.03628
11.61000, 11.11232
11.64000, 8.702008
11.67000, 5.972265
11.70000, 6.227096
11.73000, 8.883502
11.76000, 7.653416
11.79000, 6.384795
11.82000, 5.711683
11.85000, 5.020013
11.88000, 3.912732
11.91000, 3.809301
11.94000, 6.539043
11.97000, 7.135845
12.00000, 3.453876
12.03000, 1.594172
12.06000, 1.362040
12.09000, 1.533958
12.12000, 0.2496200
12.15000, 2.220735
12.18000, 9.513127
12.21000, 14.29436
12.24000, 16.61355
12.27000, 16.66193
12.30000, 13.46203
12.33000, 8.463877
12.36000, 6.122536
12.39000, 6.754872
12.42000, 5.972569
12.45000, 6.242520
12.48000, 6.500213
12.51000, 9.944656
12.54000, 10.80582
12.57000, 11.34759
12.60000, 12.65607
12.63000, 12.42900
12.66000, 10.14881
12.69000, 7.218734
12.72000, 2.944774
12.75000, 1.828448
12.78000, 1.814341
12.81000, 2.513876
12.84000, 4.601978
12.87000, 7.844517
12.90000, 9.068069
12.93000, 6.341860
12.96000, 2.511903
12.99000, 0.7518680
13.02000, 2.108628
13.05000, 1.337687
13.08000, 6.1903000E-02
13.11000, 4.172460
13.14000, 4.698619
13.17000, 5.054813
13.20000, 4.684116
13.23000, 4.992033
13.26000, 2.848433
13.29000, 3.952392
13.32000, 2.964930
13.35000, 0.2989530
13.38000, 1.902781
13.41000, 3.808232
13.44000, 2.718632
13.47000, 3.244147
13.50000, 1.232481
13.53000, 1.864829
13.56000, 1.375600
13.59000, 0.7425740
13.62000, 2.878454
13.65000, 6.485954
13.68000, 8.458807
13.71000, 8.008270
13.74000, 3.735288
13.77000, 1.024851
13.80000, 1.890894
13.83000, 4.761587
13.86000, 4.951479
13.89000, 6.762064
13.92000, 5.801158
13.95000, 6.376750
13.98000, 6.803963
14.01000, 5.317670
14.04000, 5.847023
14.07000, 3.312296
14.10000, 0.5443030
14.13000, 1.497437
14.16000, 2.500812
14.19000, 0.6223030
14.22000, 5.435743
14.25000, 5.341956
14.28000, 5.805330
14.31000, 8.512672
14.34000, 10.17989
14.37000, 10.98690
14.40000, 7.702727
14.43000, 2.623360
14.46000, 0.1717150
14.49000, 0.1346860
14.52000, 0.1788240
14.55000, 0.4549460
14.58000, 0.2251100
14.61000, 0.2907660
14.64000, 1.246544
14.67000, 1.776936
14.70000, 3.709285
14.73000, 5.745656
14.76000, 7.633189
14.79000, 7.342241
14.82000, 5.781808
14.85000, 4.581907
14.88000, 6.097485
14.91000, 4.341952
14.94000, 6.375091
14.97000, 3.417052
15.00000, 4.504467
15.03000, 5.213283
15.06000, 4.974491
15.09000, 6.906105
15.12000, 7.276080
15.15000, 6.351398
15.18000, 7.294043
15.21000, 8.627007
15.24000, 9.221282
15.27000, 9.085863
15.30000, 7.547702
15.33000, 4.908778
15.36000, 5.335110
15.39000, 5.272678
15.42000, 3.317458
15.45000, 0.7725690
15.48000, 0.5852360
15.51000, 0.5530740
15.54000, 0.7490780
15.57000, 2.382530
15.60000, 1.602269
15.63000, 3.1560000E-03
15.66000, 0.3132450
15.69000, 0.3791260
15.72000, 0.4554970
15.75000, 3.698020
15.78000, 5.309844
15.81000, 3.653792
15.84000, 1.642066
15.87000, 0.4868360
15.90000, 0.9735450
15.93000, 0.5523060
15.96000, 0.3991010
15.99000, 0.8701790
16.02000, 2.279764
16.05000, 5.624291
16.08000, 6.081766
16.11000, 2.398131
16.14000, 0.6724170
16.17000, 1.787438
16.20000, 1.937359
16.23000, 0.4328420
16.26000, 1.222073
16.29000, 2.808064
16.32000, 5.033463
16.35000, 6.573321
16.38000, 5.596478
16.41000, 1.066462
16.44000, 1.478839
16.47000, 3.897836
16.50000, 4.329626
16.53000, 3.814188
16.56000, 5.860585
16.59000, 8.003994
16.62000, 9.326690
16.65000, 10.02712
16.68000, 12.01242
16.71000, 9.224281
16.74000, 4.005898
16.77000, 0.4893020
16.80000, 1.053268
16.83000, 2.115903
16.86000, 3.205231
16.89000, 3.358257
16.92000, 3.542948
16.95000, 5.283307
16.98000, 5.738050
17.01000, 4.576553
17.04000, 3.522438
17.07000, 2.012238
17.10000, 0.1267360
17.13000, 0.5792350
17.16000, 0.3928700
17.19000, 0.4136930
17.22000, 0.3813540
17.25000, 4.727123
17.28000, 5.248204
17.31000, 2.919882
17.34000, 6.028103
17.37000, 4.986887
17.40000, 1.582257
17.43000, 0.8372110
17.46000, 1.035563
17.49000, 1.176357
17.52000, 1.284392
17.55000, 3.509120
17.58000, 1.787032
17.61000, 1.330035
17.64000, 0.9876600
17.67000, 0.1498360
17.70000, 2.1925000E-02
17.73000, 0.6754000
17.76000, 0.7482920
17.79000, 0.5694630
17.82000, 1.311919
17.85000, 2.211175
17.88000, 3.794680
17.91000, 6.374612
17.94000, 8.721955
17.97000, 8.253752
18.00000, 6.739926
18.03000, 6.887513
18.06000, 7.655543
18.09000, 5.981334
18.12000, 5.952478
18.15000, 5.269917
18.18000, 4.071509
18.21000, 3.342125
18.24000, 1.918233
18.27000, 2.575574
18.30000, 0.2529910
18.33000, 3.986781
18.36000, 6.749913
18.39000, 7.550461
18.42000, 7.919477
18.45000, 9.213928
18.48000, 6.926809
18.51000, 4.721074
18.54000, 5.088711
18.57000, 6.544719
18.60000, 7.444019
18.63000, 7.930644
18.66000, 9.224574
18.69000, 10.23977
18.72000, 10.05934
18.75000, 10.78229
18.78000, 12.26156
18.81000, 13.63320
18.84000, 14.25958
18.87000, 16.76950
18.90000, 15.64510
18.93000, 17.03001
18.96000, 17.61516
18.99000, 17.19057
19.02000, 18.90624
19.05000, 19.86520
19.08000, 23.20200
19.11000, 27.76821
19.14000, 37.34600
19.17000, 52.16910
19.20000, 72.05545
19.23000, 101.9868
19.26000, 151.7134
19.29000, 230.0999
19.32000, 341.2242
19.35000, 504.2767
19.38000, 695.5666
19.41000, 936.9207
19.44000, 1228.889
19.47000, 1543.017
19.50000, 1917.302
19.53000, 2234.130
19.56000, 2545.960
19.59000, 2744.719
19.62000, 2863.854
19.65000, 2870.689
19.68000, 2756.604
19.71000, 2525.288
19.74000, 2229.585
19.77000, 1848.287
19.80000, 1509.200
19.83000, 1142.573
19.86000, 858.1185
19.89000, 616.8557
19.92000, 437.7687
19.95000, 319.2798
19.98000, 243.0383
20.01000, 193.0698
20.04000, 159.6187
20.07000, 140.6353
20.10000, 123.1221
20.13000, 108.1990
20.16000, 97.54485
20.19000, 86.96999
20.22000, 76.29783
20.25000, 72.20087
20.28000, 69.31688
20.31000, 65.23810
20.34000, 62.22512
20.37000, 59.46329
20.40000, 56.23772
20.43000, 53.68076
20.46000, 50.85243
20.49000, 46.71862
20.52000, 42.84446
20.55000, 41.55342
20.58000, 39.95214
20.61000, 38.38818
20.64000, 36.82822
20.67000, 37.03631
20.70000, 37.00948
20.73000, 39.04767
20.76000, 38.99170
20.79000, 38.29713
20.82000, 36.76283
20.85000, 32.98071
20.88000, 29.52553
20.91000, 30.48767
20.94000, 29.95314
20.97000, 28.10300
21.00000, 25.08835
21.03000, 21.70196
21.06000, 22.44085
21.09000, 23.62340
21.12000, 23.23114
21.15000, 21.38922
21.18000, 20.11811
21.21000, 17.94486
21.24000, 16.48827
21.27000, 16.31902
21.30000, 16.24108
21.33000, 14.30383
21.36000, 12.19165
21.39000, 10.15011
21.42000, 7.244485
21.45000, 4.896451
21.48000, 4.208923
21.51000, 6.197821
21.54000, 6.538174
21.57000, 7.133139
21.60000, 7.607945
21.63000, 5.472966
21.66000, 3.880062
21.69000, 3.649451
21.72000, 3.000340
21.75000, 3.354552
21.78000, 1.615722
21.81000, 0.1469550
21.84000, 1.110570
21.87000, 2.514961
21.90000, 4.422025
21.93000, 4.305004
21.96000, 4.584872
21.99000, 3.979120
22.02000, 4.925839
22.05000, 4.855074
22.08000, 4.795825
22.11000, 5.966356
22.14000, 6.211686
22.17000, 6.672515
22.20000, 7.647794
22.23000, 10.93452
22.26000, 16.01868
22.29000, 22.23825
22.32000, 32.39799
22.35000, 47.11126
22.38000, 66.61323
22.41000, 89.52970
22.44000, 113.3602
22.47000, 140.5388
22.50000, 169.8207
22.53000, 200.9209
22.56000, 233.4676
22.59000, 265.8618
22.62000, 301.3383
22.65000, 339.3845
22.68000, 367.7098
22.71000, 378.9727
22.74000, 379.0856
22.77000, 364.1325
22.80000, 340.7178
22.83000, 310.7134
22.86000, 271.2878
22.89000, 229.5819
22.92000, 189.5340
22.95000, 149.7110
22.98000, 113.6952
23.01000, 83.92218
23.04000, 62.75690
23.07000, 47.69446
23.10000, 35.72673
23.13000, 28.57957
23.16000, 25.46818
23.19000, 21.87441
23.22000, 17.41376
23.25000, 14.12355
23.28000, 9.857812
23.31000, 6.406684
23.34000, 5.958029
23.37000, 4.276071
23.40000, 3.346269
23.43000, 2.001305
23.46000, 0.6607730
23.49000, 0.4986800
23.52000, 1.484053
23.55000, 3.490196
23.58000, 5.213611
23.61000, 5.352225
23.64000, 3.648257
23.67000, 2.018281
23.70000, 0.8041380
23.73000, 0.7864670
23.76000, 1.742359
23.79000, 8.1510998E-02
23.82000, 0.7705530
23.85000, 0.9929310
23.88000, 2.819169
23.91000, 0.5983380
23.94000, 0.1502710
23.97000, 2.762207
24.00000, 3.577602
24.03000, 2.855778
24.06000, 2.852263
24.09000, 2.171754
24.12000, 2.467219
24.15000, 3.061017
24.18000, 3.666905
24.21000, 3.235686
24.24000, 1.888877
24.27000, 0.2655710
24.30000, 1.528723
24.33000, 1.465190
24.36000, 1.326478
24.39000, 1.493317
24.42000, 1.597473
24.45000, 3.786657
24.48000, 3.995224
24.51000, 3.007220
24.54000, 1.064646
24.57000, 0.6413940
24.60000, 1.065452
24.63000, 1.164915
24.66000, 0.3658070
24.69000, 0.4805510
24.72000, 2.489329
24.75000, 2.770355
24.78000, 0.5048130
24.81000, 1.179381
24.84000, 0.4826180
24.87000, 0.1350110
24.90000, 1.771904
24.93000, 1.038239
24.96000, 0.8549130
24.99000, 0.5233380
25.02000, 0.8900690
25.05000, 2.700811
25.08000, 2.742980
25.11000, 1.991595
25.14000, 2.202609
25.17000, 2.115065
25.20000, 0.9649110
25.23000, 1.139139
25.26000, 0.9310090
25.29000, 0.7960360
25.32000, 1.304279
25.35000, 1.589947
25.38000, 2.087095
25.41000, 1.978924
25.44000, 2.251825
25.47000, 3.331201
25.50000, 3.217726
25.53000, 0.6712420
25.56000, 6.9113001E-02
25.59000, 0.3521910
25.62000, 0.2105510
25.65000, 0.7311770
25.68000, 0.7031240
25.71000, 2.232408
25.74000, 4.995116
25.77000, 6.166314
25.80000, 6.656967
25.83000, 3.792130
25.86000, 1.199748
25.89000, 0.4297200
25.92000, 1.217057
25.95000, 0.6357510
25.98000, 0.3218160
26.01000, 1.228179
26.04000, 1.960932
26.07000, 2.702115
26.10000, 3.751775
26.13000, 4.675922
26.16000, 3.767572
26.19000, 3.680697
26.22000, 1.857300
26.25000, 0.7993620
26.28000, 1.278793
26.31000, 2.280654
26.34000, 2.851941
26.37000, 2.654716
26.40000, 2.983945
26.43000, 2.244955
26.46000, 1.897652
26.49000, 2.016802
26.52000, 1.294637
26.55000, 1.149060
26.58000, 2.047881
26.61000, 0.1447110
26.64000, 0.1309710
26.67000, 1.101713
26.70000, 1.859003
26.73000, 0.5510990
26.76000, 2.636385
26.79000, 4.210752
26.82000, 3.994555
26.85000, 3.916795
26.88000, 1.711838
26.91000, 0.2770700
26.94000, 1.792787
26.97000, 4.263055
27.00000, 4.330788
27.03000, 3.282970
27.06000, 2.764956
27.09000, 2.842984
27.12000, 3.204354
27.15000, 3.143258
27.18000, 3.342614
27.21000, 3.926371
27.24000, 3.446592
27.27000, 2.622238
27.30000, 5.516664
27.33000, 6.344184
27.36000, 3.364198
27.39000, 0.2071430
27.42000, 1.473204
27.45000, 2.474056
27.48000, 0.2818910
27.51000, 0.4850920
27.54000, 0.2053590
27.57000, 0.4999610
27.60000, 0.3265750
27.63000, 5.6724001E-02
27.66000, 0.7312570
27.69000, 1.162937
27.72000, 2.119341
27.75000, 2.177251
27.78000, 2.963437
27.81000, 3.355051
27.84000, 4.192120
27.87000, 3.794114
27.90000, 4.202144
27.93000, 3.604072
27.96000, 4.516212
27.99000, 4.315434
28.02000, 4.453655
28.05000, 3.612879
28.08000, 3.101651
28.11000, 3.179205
28.14000, 3.234915
28.17000, 3.372004
28.20000, 3.015019
28.23000, 3.598407
28.26000, 4.958869
28.29000, 3.036580
28.32000, 1.337820
28.35000, 0.1722880
28.38000, 2.239704
28.41000, 4.720748
28.44000, 6.779822
28.47000, 8.901420
28.50000, 8.210599
28.53000, 5.017481
28.56000, 4.008420
28.59000, 4.144669
28.62000, 2.897143
28.65000, 3.140779
28.68000, 1.495795
28.71000, 2.976522
28.74000, 3.114195
28.77000, 2.298765
28.80000, 2.112600
28.83000, 0.4395930
28.86000, 0.8062900
28.89000, 0.5745630
28.92000, 0.5516000
28.95000, 0.8961140
28.98000, 0.3752550
29.01000, 1.885829
29.04000, 3.359882
29.07000, 8.3668001E-02
29.10000, 0.8693130
29.13000, 1.445337
29.16000, 1.816096
29.19000, 1.751151
29.22000, 3.296314
29.25000, 3.220642
29.28000, 3.915835
29.31000, 5.618740
29.34000, 5.135647
29.37000, 3.782229
29.40000, 2.129536
29.43000, 1.081540
29.46000, 3.382338
29.49000, 4.108085
29.52000, 4.573480
29.55000, 3.951374
29.58000, 3.316931
29.61000, 6.513657
29.64000, 9.572480
29.67000, 6.918120
29.70000, 5.970659
29.73000, 7.985930
29.76000, 7.135989
29.79000, 4.045732
29.82000, 3.175526
29.85000, 2.503802
29.88000, 1.641900
29.91000, 0.7326890
29.94000, 1.492630
29.97000, 0.8125000
30.00000, 0.2664710
30.03000, 0.7780650
30.06000, 0.5389820
30.09000, 0.8445220
30.12000, 2.272821
30.15000, 1.634759
30.18000, 1.8448001E-02
30.21000, 1.941123
30.24000, 0.4359410
30.27000, 0.2389710
30.30000, 0.7927220
30.33000, 0.2036940
30.36000, 1.105977
30.39000, 2.308774
30.42000, 0.8763770
30.45000, 6.3804999E-02
30.48000, 2.707898
30.51000, 3.440857
30.54000, 2.292441
30.57000, 0.8131420
30.60000, 1.571668
30.63000, 1.050641
30.66000, 0.9453150
30.69000, 4.260280
30.72000, 6.253595
30.75000, 5.959531
30.78000, 3.880194
30.81000, 2.770712
30.84000, 4.794600
30.87000, 4.945933
30.90000, 4.278046
30.93000, 3.189317
30.96000, 2.345222
30.99000, 3.219762
31.02000, 3.641213
31.05000, 3.870489
31.08000, 3.031181
31.11000, 0.6619490
31.14000, 0.5959780
31.17000, 2.359517
31.20000, 3.457600
31.23000, 6.204783
31.26000, 8.180302
31.29000, 7.643262
31.32000, 7.135230
31.35000, 4.173479
31.38000, 2.262221
31.41000, 1.800946
31.44000, 2.601652
31.47000, 2.648553
31.50000, 4.712499
31.53000, 7.173501
31.56000, 7.249396
31.59000, 7.357907
31.62000, 9.451413
31.65000, 9.268878
31.68000, 10.72432
31.71000, 14.13874
31.74000, 15.44021
31.77000, 19.53771
31.80000, 23.23721
31.83000, 27.65479
31.86000, 38.41142
31.89000, 56.40392
31.92000, 80.88484
31.95000, 112.7146
31.98000, 154.7074
32.01000, 211.6467
32.04000, 281.1002
32.07000, 347.5519
32.10000, 407.6105
32.13000, 459.2871
32.16000, 496.0294
32.19000, 518.0067
32.22000, 528.8979
32.25000, 525.3475
32.28000, 510.5562
32.31000, 492.5132
32.34000, 462.8045
32.37000, 420.4618
32.40000, 377.0308
32.43000, 334.0288
32.46000, 285.4250
32.49000, 231.8438
32.52000, 178.8706
32.55000, 132.5886
32.58000, 102.4396
32.61000, 82.10630
32.64000, 62.47926
32.67000, 51.05390
32.70000, 43.12841
32.73000, 37.14271
32.76000, 33.45068
32.79000, 30.10783
32.82000, 27.10050
32.85000, 23.64336
32.88000, 20.20701
32.91000, 17.86799
32.94000, 16.86442
32.97000, 17.54277
33.00000, 16.31116
33.03000, 17.79950
33.06000, 19.53087
33.09000, 17.58032
33.12000, 13.47880
33.15000, 12.68733
33.18000, 13.32194
33.21000, 14.08958
33.24000, 13.19727
33.27000, 12.59596
33.30000, 12.05365
33.33000, 14.36031
33.36000, 14.88799
33.39000, 12.00269
33.42000, 10.41640
33.45000, 7.535167
33.48000, 5.659007
33.51000, 7.783894
33.54000, 9.121772
33.57000, 8.900675
33.60000, 7.819321
33.63000, 7.016786
33.66000, 6.396287
33.69000, 4.009608
33.72000, 3.555773
33.75000, 2.614030
33.78000, 0.8337660
33.81000, 0.6429160
33.84000, 2.5643000E-02
33.87000, 2.292759
33.90000, 5.992564
33.93000, 6.298577
33.96000, 4.798018
33.99000, 4.616571
34.02000, 4.842203
34.05000, 3.602610
34.08000, 3.327464
34.11000, 7.628722
34.14000, 7.643138
34.17000, 8.448676
34.20000, 8.815272
34.23000, 6.360971
34.26000, 5.867791
34.29000, 5.611725
34.32000, 5.687781
34.35000, 4.800242
34.38000, 5.567213
34.41000, 3.405590
34.44000, 2.023082
34.47000, 1.565727
34.50000, 2.794499
34.53000, 4.046372
34.56000, 3.703363
34.59000, 4.630737
34.62000, 5.340881
34.65000, 4.170226
34.68000, 2.130061
34.71000, 1.535381
34.74000, 0.4882780
34.77000, 0.9539840
34.80000, 2.705180
34.83000, 3.402651
34.86000, 4.433191
34.89000, 5.389571
34.92000, 5.538992
34.95000, 5.836041
34.98000, 4.512211
35.01000, 2.255520
35.04000, 1.110058
35.07000, 0.7461760
35.10000, 0.2756330
35.13000, 0.9321900
35.16000, 0.6448300
35.19000, 2.051968
35.22000, 2.676187
35.25000, 4.115573
35.28000, 5.693030
35.31000, 4.038628
35.34000, 4.604833
35.37000, 2.156157
35.40000, 2.774097
35.43000, 0.2151400
35.46000, 0.7222840
35.49000, 0.6621170
35.52000, 0.2488270
35.55000, 2.818393
35.58000, 4.409721
35.61000, 2.710135
35.64000, 3.499668
35.67000, 3.498273
35.70000, 3.298999
35.73000, 3.535818
35.76000, 2.210715
35.79000, 0.8627180
35.82000, 0.4860900
35.85000, 0.8843260
35.88000, 0.5136930
35.91000, 1.215719
35.94000, 0.8881190
35.97000, 0.2449300
36.00000, 0.6913970
36.03000, 0.1131780
36.06000, 1.066308
36.09000, 0.6192360
36.12000, 0.4237520
36.15000, 2.260098
36.18000, 1.421808
36.21000, 0.1281040
36.24000, 1.215220
36.27000, 1.025935
36.30000, 3.9370000E-02
36.33000, 0.9902010
36.36000, 0.5742860
36.39000, 0.8971750
36.42000, 0.4673530
36.45000, 0.5527030
36.48000, 1.149406
36.51000, 0.6222160
36.54000, 1.483353
36.57000, 1.505813
36.60000, 3.629812
36.63000, 4.873904
36.66000, 5.704125
36.69000, 4.761482
36.72000, 5.635345
36.75000, 4.306536
36.78000, 4.968278
36.81000, 4.416118
36.84000, 2.234104
36.87000, 1.211205
36.90000, 2.557445
36.93000, 3.364803
36.96000, 4.509301
36.99000, 4.192722
37.02000, 4.491652
37.05000, 3.018546
37.08000, 1.302748
37.11000, 0.3000550
37.14000, 0.8525200
37.17000, 2.242099
37.20000, 4.368928
37.23000, 6.010119
37.26000, 7.344703
37.29000, 7.209695
37.32000, 7.679997
37.35000, 7.902843
37.38000, 8.437395
37.41000, 8.293184
37.44000, 7.884313
37.47000, 8.574110
37.50000, 9.767252
37.53000, 12.43363
37.56000, 14.08310
37.59000, 20.96516
37.62000, 26.51575
37.65000, 34.37589
37.68000, 49.51958
37.71000, 64.52879
37.74000, 83.36121
37.77000, 106.0826
37.80000, 132.5103
37.83000, 161.5600
37.86000, 188.1849
37.89000, 218.2408
37.92000, 247.6469
37.95000, 269.6062
37.98000, 285.7100
38.01000, 293.6659
38.04000, 290.5339
38.07000, 282.4825
38.10000, 273.6595
38.13000, 262.2473
38.16000, 244.6333
38.19000, 227.0455
38.22000, 211.5220
38.25000, 195.6384
38.28000, 174.4368
38.31000, 154.1095
38.34000, 130.4229
38.37000, 106.2202
38.40000, 85.71396
38.43000, 62.70380
38.46000, 46.48868
38.49000, 37.95070
38.52000, 32.80674
38.55000, 28.73486
38.58000, 23.69205
38.61000, 20.37631
38.64000, 17.64860
38.67000, 16.92861
38.70000, 15.68525
38.73000, 14.98377
38.76000, 15.12540
38.79000, 15.31811
38.82000, 14.77390
38.85000, 12.07374
38.88000, 12.48937
38.91000, 8.408677
38.94000, 10.60873
38.97000, 9.338839
39.00000, 6.475042
39.03000, 7.786292
39.06000, 9.945394
39.09000, 12.08712
39.12000, 13.27592
39.15000, 13.96245
39.18000, 14.61903
39.21000, 11.77771
39.24000, 12.15843
39.27000, 13.78126
39.30000, 14.53411
39.33000, 16.82904
39.36000, 21.05902
39.39000, 24.17009
39.42000, 30.01304
39.45000, 39.64541
39.48000, 52.83404
39.51000, 71.17529
39.54000, 90.03259
39.57000, 111.5216
39.60000, 146.2678
39.63000, 177.8674
39.66000, 215.8710
39.69000, 251.2490
39.72000, 275.4048
39.75000, 284.2674
39.78000, 292.1462
39.81000, 284.6357
39.84000, 263.5915
39.87000, 248.1370
39.90000, 237.8307
39.93000, 230.9027
39.96000, 226.1028
39.99000, 216.6694
40.02000, 204.8981
40.05000, 184.7901
40.08000, 149.1527
40.11000, 115.7301
40.14000, 87.82258
40.17000, 67.38811
40.20000, 48.46278
40.23000, 36.51450
40.26000, 28.99935
40.29000, 23.69149
40.32000, 22.48512
40.35000, 23.07400
40.38000, 20.19891
40.41000, 17.82596
40.44000, 17.74806
40.47000, 18.29525
40.50000, 18.31651
40.53000, 17.76282
40.56000, 17.23824
40.59000, 15.64901
40.62000, 14.84526
40.65000, 11.57934
40.68000, 9.266998
40.71000, 6.520742
40.74000, 6.403543
40.77000, 4.191370
40.80000, 5.109248
40.83000, 5.864189
40.86000, 5.353960
40.89000, 7.766611
40.92000, 9.949382
40.95000, 9.346267
40.98000, 10.14131
41.01000, 8.702774
41.04000, 8.552846
41.07000, 6.613027
41.10000, 4.602193
41.13000, 5.210005
41.16000, 3.184697
41.19000, 1.940416
41.22000, 1.098995
41.25000, 1.251807
41.28000, 1.132709
41.31000, 0.9910420
41.34000, 1.954906
41.37000, 1.666111
41.40000, 2.098292
41.43000, 3.648374
41.46000, 4.691433
41.49000, 4.918447
41.52000, 5.881373
41.55000, 7.166797
41.58000, 5.593915
41.61000, 2.347764
41.64000, 0.9881890
41.67000, 2.520319
41.70000, 0.9667840
41.73000, 1.909092
41.76000, 1.950315
41.79000, 0.6464360
41.82000, 9.5337003E-02
41.85000, 2.086017
41.88000, 0.3864180
41.91000, 0.1652600
41.94000, 0.3737780
41.97000, 2.894321
42.00000, 4.237301
42.03000, 4.051153
42.06000, 3.743262
42.09000, 2.688271
42.12000, 3.047179
42.15000, 3.678810
42.18000, 6.425542
42.21000, 5.295034
42.24000, 5.395718
42.27000, 4.785493
42.30000, 4.736226
42.33000, 6.228128
42.36000, 6.290848
42.39000, 5.392447
42.42000, 3.768904
42.45000, 3.860205
42.48000, 4.391370
42.51000, 4.296376
42.54000, 4.165322
42.57000, 3.583937
42.60000, 3.919470
42.63000, 4.239882
42.66000, 4.927506
42.69000, 4.432180
42.72000, 4.707290
42.75000, 4.457758
42.78000, 4.260561
42.81000, 4.003706
42.84000, 3.206722
42.87000, 3.371578
42.90000, 1.104262
42.93000, 0.5327770
42.96000, 0.2405970
42.99000, 0.2345380
43.02000, 0.1466270
43.05000, 0.8385660
43.08000, 0.4135450
43.11000, 0.5256230
43.14000, 1.300676
43.17000, 1.650882
43.20000, 1.854136
43.23000, 1.938302
43.26000, 0.3208160
43.29000, 0.6712070
43.32000, 0.1840090
43.35000, 2.413598
43.38000, 2.792357
43.41000, 0.2546200
43.44000, 0.2078350
43.47000, 0.8938950
43.50000, 0.7036990
43.53000, 0.7320550
43.56000, 1.139658
43.59000, 2.334432
43.62000, 1.812012
43.65000, 3.035712
43.68000, 2.366710
43.71000, 4.495026
43.74000, 2.957310
43.77000, 3.484350
43.80000, 4.886115
43.83000, 4.723637
43.86000, 5.440146
43.89000, 5.367314
43.92000, 3.555508
43.95000, 2.946972
43.98000, 2.249162
44.01000, 1.538461
44.04000, 1.978702
44.07000, 1.329073
44.10000, 3.436161
44.13000, 4.564994
44.16000, 1.265515
44.19000, 3.777073
44.22000, 0.2382690
44.25000, 4.871038
44.28000, 3.125076
44.31000, 2.715830
44.34000, 4.026312
44.37000, 4.059495
44.40000, 2.684382
44.43000, 0.3209890
44.46000, 9.0738997E-02
44.49000, 0.6636350
44.52000, 8.7333001E-02
44.55000, 0.4136230
44.58000, 0.5150200
44.61000, 0.1983630
44.64000, 2.451069
44.67000, 4.034478
44.70000, 1.016292
44.73000, 0.4249650
44.76000, 0.4914080
44.79000, 0.3313140
44.82000, 0.2239020
44.85000, 0.5968010
44.88000, 0.3964910
44.91000, 1.342849
44.94000, 1.461811
44.97000, 2.267616
45.00000, 1.872690
45.03000, 2.637555
45.06000, 3.027176
45.09000, 2.000536
45.12000, 0.4027920
45.15000, 2.779603
45.18000, 2.282742
45.21000, 0.5420000
45.24000, 0.2843820
45.27000, 0.8881830
45.30000, 2.753635
45.33000, 2.795827
45.36000, 2.248796
45.39000, 2.996117
45.42000, 6.596523
45.45000, 8.476669
45.48000, 8.101259
45.51000, 6.878277
45.54000, 7.394980
45.57000, 7.199134
45.60000, 7.187044
45.63000, 6.777089
45.66000, 6.054986
45.69000, 6.238327
45.72000, 6.055443
45.75000, 5.030304
45.78000, 4.679909
45.81000, 5.127292
45.84000, 3.878384
45.87000, 3.940297
45.90000, 4.425915
45.93000, 3.469301
45.96000, 5.589451
45.99000, 7.721364
46.02000, 7.883045
46.05000, 8.761458
46.08000, 8.748673
46.11000, 8.675703
46.14000, 8.031913
46.17000, 7.071328
46.20000, 7.809107
46.23000, 9.725726
46.26000, 11.86316
46.29000, 11.33434
46.32000, 7.862293
46.35000, 4.019014
46.38000, 3.566961
46.41000, 2.765039
46.44000, 1.066890
46.47000, 2.264506
46.50000, 1.964896
46.53000, 0.3140590
46.56000, 0.6979980
46.59000, 1.208936
46.62000, 2.918080
46.65000, 3.955525
46.68000, 5.877753
46.71000, 8.639067
46.74000, 8.606705
46.77000, 7.511496
46.80000, 4.113053
46.83000, 0.7785790
46.86000, 3.3730000E-02
46.89000, 1.1491000E-02
46.92000, 1.098769
46.95000, 1.718106
46.98000, 1.150166
47.01000, 5.8511000E-02
47.04000, 0.8531400
47.07000, 0.8353780
47.10000, 1.100614
47.13000, 1.732868
47.16000, 2.451959
47.19000, 2.604858
47.22000, 2.576573
47.25000, 3.066112
47.28000, 3.558487
47.31000, 3.815662
47.34000, 3.479666
47.37000, 1.720513
47.40000, 1.138163
47.43000, 0.7833280
47.46000, 0.5432560
47.49000, 0.4775690
47.52000, 3.034894
47.55000, 3.860192
47.58000, 4.380348
47.61000, 4.739342
47.64000, 4.644147
47.67000, 3.689854
47.70000, 5.230392
47.73000, 7.025800
47.76000, 6.238052
47.79000, 6.850366
47.82000, 4.259687
47.85000, 5.994525
47.88000, 4.180267
47.91000, 3.653873
47.94000, 2.862337
47.97000, 0.6956700
48.00000, 1.180122
48.03000, 1.324473
48.06000, 1.751254
48.09000, 3.309322
48.12000, 4.738160
48.15000, 6.119999
48.18000, 6.267814
48.21000, 4.007980
48.24000, 1.963972
48.27000, 0.2761040
48.30000, 0.8859860
48.33000, 0.1349750
48.36000, 1.852832
48.39000, 2.804780
48.42000, 2.864411
48.45000, 3.159665
48.48000, 3.538899
48.51000, 2.125227
48.54000, 3.264992
48.57000, 6.968881
48.60000, 7.487960
48.63000, 5.180049
48.66000, 3.951126
48.69000, 1.738217
48.72000, 0.5537830
48.75000, 1.167585
48.78000, 1.664637
48.81000, 0.1790360
48.84000, 4.5281000E-02
48.87000, 1.245993
48.90000, 0.7163740
48.93000, 0.6171860
48.96000, 1.666036
48.99000, 6.128516
49.02000, 8.164071
49.05000, 6.428677
49.08000, 5.283502
49.11000, 4.325733
49.14000, 3.172156
49.17000, 0.9066570
49.20000, 1.475018
49.23000, 0.1567240
49.26000, 4.629222
49.29000, 6.955255
49.32000, 4.448402
49.35000, 2.276604
49.38000, 2.963938
49.41000, 4.878397
49.44000, 7.731962
49.47000, 6.832631
49.50000, 6.906436
49.53000, 7.781319
49.56000, 8.084354
49.59000, 7.345497
49.62000, 2.428745
49.65000, 0.3243710
49.68000, 1.262803
49.71000, 2.296713
49.74000, 3.580431
49.77000, 4.214639
49.80000, 4.156177
49.83000, 4.465982
49.86000, 5.058518
49.89000, 4.180872
49.92000, 3.288350
49.95000, 3.253026
49.98000, 5.995090
50.01000, 7.261951
50.04000, 10.82692
50.07000, 12.53501
50.10000, 6.948239
50.13000, 5.535328
50.16000, 9.534902
50.19000, 10.65070
50.22000, 12.33164
50.25000, 17.47110
50.28000, 27.91104
50.31000, 39.13030
50.34000, 49.76485
50.37000, 64.41039
50.40000, 82.14205
50.43000, 99.33230
50.46000, 123.1325
50.49000, 150.9896
50.52000, 167.6946
50.55000, 177.4172
50.58000, 182.3188
50.61000, 170.5765
50.64000, 160.5416
50.67000, 147.7341
50.70000, 131.6263
50.73000, 122.2537
50.76000, 121.8414
50.79000, 123.9043
50.82000, 127.9004
50.85000, 135.1908
50.88000, 138.2063
50.91000, 134.9972
50.94000, 125.9703
50.97000, 110.5176
51.00000, 94.89917
51.03000, 78.45879
51.06000, 60.83168
51.09000, 48.25355
51.12000, 36.31314
51.15000, 25.75002
51.18000, 20.71416
51.21000, 16.57457
51.24000, 10.67924
51.27000, 7.618186
51.30000, 9.909410
51.33000, 14.50191
51.36000, 16.63069
51.39000, 17.05575
51.42000, 16.30229
51.45000, 16.11609
51.48000, 15.44118
51.51000, 15.80359
51.54000, 16.32526
51.57000, 14.41722
51.60000, 17.06273
51.63000, 20.77657
51.66000, 22.15131
51.69000, 27.33479
51.72000, 32.39483
51.75000, 36.81150
51.78000, 40.77727
51.81000, 41.03535
51.84000, 41.28365
51.87000, 44.35457
51.90000, 48.53354
51.93000, 52.20302
51.96000, 55.78320
51.99000, 57.13304
52.02000, 59.46164
52.05000, 61.98038
52.08000, 57.79757
52.11000, 51.25261
52.14000, 47.83208
52.17000, 44.06103
52.20000, 41.62487
52.23000, 43.25594
52.26000, 45.99096
52.29000, 45.50468
52.32000, 42.30951
52.35000, 36.72968
52.38000, 34.11749
52.41000, 31.97402
52.44000, 27.38574
52.47000, 22.63380
52.50000, 17.61107
52.53000, 15.39354
52.56000, 16.74831
52.59000, 16.48231
52.62000, 12.51553
52.65000, 7.335040
52.68000, 2.835756
52.71000, 1.356711
52.74000, 0.5808820
52.77000, 0.1996730
52.80000, 0.3304730
52.83000, 0.1847480
52.86000, 0.8215420
52.89000, 1.599566
52.92000, 5.674825
52.95000, 9.638372
52.98000, 11.42694
53.01000, 11.57195
53.04000, 9.856641
53.07000, 7.199701
53.10000, 3.526018
53.13000, 3.453558
53.16000, 3.064379
53.19000, 2.360423
53.22000, 3.0712999E-02
53.25000, 0.1397710
53.28000, 1.223639
53.31000, 1.510230
53.34000, 1.110426
53.37000, 0.3447210
53.40000, 2.707616
53.43000, 4.722213
53.46000, 2.670049
53.49000, 0.2651440
53.52000, 1.548305
53.55000, 1.244871
53.58000, 1.105394
53.61000, 5.007872
53.64000, 5.340615
53.67000, 5.011579
53.70000, 5.534807
53.73000, 2.960278
53.76000, 3.707004
53.79000, 6.423988
53.82000, 6.639213
53.85000, 3.326664
53.88000, 1.609372
53.91000, 1.159683
53.94000, 0.4458520
53.97000, 5.825629
54.00000, 6.031620
54.03000, 5.205211
54.06000, 4.500427
54.09000, 3.693282
54.12000, 2.450006
54.15000, 2.782789
54.18000, 2.571455
54.21000, 2.398736
54.24000, 3.384840
54.27000, 6.635554
54.30000, 8.306473
54.33000, 7.592650
54.36000, 7.681648
54.39000, 6.983377
54.42000, 4.468510
54.45000, 4.888574
54.48000, 3.075860
54.51000, 2.604403
54.54000, 1.264136
54.57000, 4.702077
54.60000, 9.493276
54.63000, 9.149928
54.66000, 8.451177
54.69000, 7.405787
54.72000, 6.197355
54.75000, 5.434703
54.78000, 3.317983
54.81000, 1.811473
54.84000, 0.7161830
54.87000, 4.976099
54.90000, 7.842227
54.93000, 6.801582
54.96000, 7.495141
54.99000, 9.294900
55.02000, 9.800893
55.05000, 10.86608
55.08000, 5.921473
55.11000, 1.560067
55.14000, 1.510850
55.17000, 1.8565999E-02
55.20000, 1.358729
55.23000, 1.153422
55.26000, 2.088426
55.29000, 3.118211
55.32000, 1.093872
55.35000, 1.445238
55.38000, 2.175685
55.41000, 4.014309
55.44000, 5.489108
55.47000, 5.196549
55.50000, 4.952620
55.53000, 3.715225
55.56000, 2.394001
55.59000, 0.2010560
55.62000, 1.218240
55.65000, 1.404903
55.68000, 1.178467
55.71000, 0.3343710
55.74000, 0.7205370
55.77000, 0.3911060
55.80000, 1.428633
55.83000, 3.876785
55.86000, 3.363459
55.89000, 5.464078
55.92000, 6.340299
55.95000, 3.680315
55.98000, 3.046070
56.01000, 5.229949
56.04000, 5.300929
56.07000, 7.215027
56.10000, 8.755201
56.13000, 8.136621
56.16000, 5.132153
56.19000, 2.944756
56.22000, 4.610470
56.25000, 4.313258
56.28000, 3.150179
56.31000, 4.729180
56.34000, 5.934470
56.37000, 9.674380
56.40000, 11.93728
56.43000, 7.869676
56.46000, 6.882167
56.49000, 6.225757
56.52000, 2.770425
56.55000, 0.1121920
56.58000, 0.7439940
56.61000, 2.094583
56.64000, 5.547410
56.67000, 7.132506
56.70000, 6.812644
56.73000, 8.717870
56.76000, 13.19619
56.79000, 12.25958
56.82000, 15.15483
56.85000, 15.39546
56.88000, 16.42813
56.91000, 14.28964
56.94000, 18.19727
56.97000, 18.40171
57.00000, 18.23392
57.03000, 21.03421
57.06000, 21.89858
57.09000, 19.32803
57.12000, 21.82455
57.15000, 26.05300
57.18000, 33.97978
57.21000, 41.00260
57.24000, 51.07151
57.27000, 65.18953
57.30000, 77.95065
57.33000, 84.12480
57.36000, 90.41996
57.39000, 89.20438
57.42000, 93.71198
57.45000, 89.17077
57.48000, 86.18465
57.51000, 83.53947
57.54000, 70.84052
57.57000, 66.00565
57.60000, 64.56484
57.63000, 63.35811
57.66000, 64.60545
57.69000, 63.16587
57.72000, 60.87935
57.75000, 61.51489
57.78000, 59.11345
57.81000, 56.78405
57.84000, 58.54067
57.87000, 52.03534
57.90000, 46.71102
57.93000, 44.11776
57.96000, 34.98552
57.99000, 26.73040
58.02000, 18.81534
58.05000, 16.40634
58.08000, 14.65546
58.11000, 14.36662
58.14000, 13.64789
58.17000, 8.491197
58.20000, 8.013592
58.23000, 10.56809
58.26000, 11.58862
58.29000, 14.07222
58.32000, 15.26092
58.35000, 14.50268
58.38000, 10.23947
58.41000, 7.602393
58.44000, 10.75039
58.47000, 11.27748
58.50000, 9.226707
58.53000, 9.208016
58.56000, 6.553468
58.59000, 3.239000
58.62000, 3.497673
58.65000, 2.917472
58.68000, 3.501565
58.71000, 6.605334
58.74000, 6.913635
58.77000, 5.200143
58.80000, 2.766755
58.83000, 3.131987
58.86000, 6.847308
58.89000, 4.771065
58.92000, 5.073769
58.95000, 6.409216
58.98000, 5.218826
59.01000, 3.790512
59.04000, 3.662349
59.07000, 3.853301
59.10000, 4.671834
59.13000, 1.038861
59.16000, 6.600348
59.19000, 8.530836
59.22000, 7.179964
59.25000, 4.135393
59.28000, 3.742692
59.31000, 1.521920
59.34000, 0.4088500
59.37000, 2.113670
59.40000, 0.9332040
59.43000, 1.299536
59.46000, 8.3012998E-02
59.49000, 1.658388
59.52000, 0.9984650
59.55000, 0.9260850
59.58000, 2.991891
59.61000, 2.418171
59.64000, 3.797591
59.67000, 7.904114
59.70000, 9.434741
59.73000, 12.29446
59.76000, 12.19031
59.79000, 8.142266
59.82000, 5.711329
59.85000, 4.704509
59.88000, 5.224452
59.91000, 2.733805
59.94000, 3.055320
59.97000, 3.219784
60.00000, 2.667670
60.03000, 7.299633
60.06000, 8.362696
60.09000, 8.162848
60.12000, 6.102108
60.15000, 1.115721
60.18000, 1.236689
60.21000, 0.5113310
60.24000, 2.839393
60.27000, 4.396287
60.30000, 3.179353
60.33000, 5.071795
60.36000, 5.621444
60.39000, 4.611654
60.42000, 6.751523
60.45000, 4.367578
60.48000, 2.787504
60.51000, 0.8965560
60.54000, 1.162770
60.57000, 2.894700
60.60000, 3.511291
60.63000, 5.386101
60.66000, 6.260085
60.69000, 1.890340
60.72000, 3.1808998E-02
60.75000, 3.468712
60.78000, 6.513572
60.81000, 6.695559
60.84000, 7.216702
60.87000, 10.26396
60.90000, 12.09439
60.93000, 15.38795
60.96000, 19.83368
60.99000, 21.03070
61.02000, 19.81898
61.05000, 13.68262
61.08000, 11.92032
61.11000, 17.38042
61.14000, 21.19354
61.17000, 25.54381
61.20000, 30.10731
61.23000, 32.43302
61.26000, 35.44893
61.29000, 34.28580
61.32000, 31.04856
61.35000, 28.58309
61.38000, 30.15424
61.41000, 31.10877
61.44000, 22.09546
61.47000, 15.92850
61.50000, 16.55776
61.53000, 17.54609
61.56000, 17.90244
61.59000, 19.48282
61.62000, 19.35926
61.65000, 18.42468
61.68000, 20.68015
61.71000, 24.54460
61.74000, 26.55510
61.77000, 25.70959
61.80000, 23.81011
61.83000, 17.70762
61.86000, 10.09510
61.89000, 6.569607
61.92000, 8.800127
61.95000, 6.455177
61.98000, 5.363315
62.01000, 7.084739
62.04000, 7.991567
62.07000, 7.779671
62.10000, 8.641019
62.13000, 9.148637
62.16000, 8.327630
62.19000, 9.301131
62.22000, 7.528279
62.25000, 5.200143
62.28000, 5.762751
62.31000, 5.033336
62.34000, 3.127123
62.37000, 2.879113
62.40000, 2.959399
62.43000, 0.2669560
62.46000, 1.1044000E-02
62.49000, 2.352952
62.52000, 4.494039
62.55000, 7.966293
62.58000, 8.395524
62.61000, 7.645033
62.64000, 5.790848
62.67000, 8.283822
62.70000, 5.552375
62.73000, 12.23237
62.76000, 4.345989
62.79000, 3.449787
62.82000, 6.747022
62.85000, 8.365567
62.88000, 7.295605
62.91000, 5.122763
62.94000, 4.667124
62.97000, 3.598402
63.00000, 3.394830
63.03000, 1.730410
63.06000, 0.2351370
63.09000, 0.2591430
63.12000, 0.5884530
63.15000, 0.1806280
63.18000, 4.102595
63.21000, 1.970872
63.24000, 3.026385
63.27000, 4.610198
63.30000, 2.051297
63.33000, 3.369623
63.36000, 2.391873
63.39000, 2.124011
63.42000, 4.412998
63.45000, 5.0182000E-02
63.48000, 0.4859820
63.51000, 6.6017002E-02
63.54000, 0.5627770
63.57000, 1.040142
63.60000, 4.293418
63.63000, 7.365940
63.66000, 4.522651
63.69000, 1.761906
63.72000, 2.605946
63.75000, 2.673566
63.78000, 0.5653590
63.81000, 1.316552
63.84000, 0.6053630
63.87000, 3.284215
63.90000, 2.447603
63.93000, 5.384528
63.96000, 2.212866
63.99000, 0.1947680
64.02000, 2.4305001E-02
64.05000, 0.1710750
64.08000, 6.3302003E-02
64.11000, 0.8622430
64.14000, 0.9118280
64.17000, 2.897636
64.20000, 2.278982
64.23000, 2.086424
64.26000, 2.260055
64.29000, 4.290079
64.32000, 3.633184
64.35000, 4.313793
64.38000, 1.258173
64.41000, 5.371563
64.44000, 8.365760
64.47000, 9.275569
64.50000, 5.975438
64.53000, 3.447459
64.56000, 0.3038240
64.59000, 0.1184550
64.62000, 4.192290
64.65000, 1.859446
64.68000, 1.412188
64.71000, 1.662507
64.74000, 0.6460920
64.77000, 1.137020
64.80000, 3.229029
64.83000, 7.075631
64.86000, 4.434572
64.89000, 3.858447
64.92000, 2.904738
64.95000, 1.923440
64.98000, 0.6386030
65.01000, 1.086334
65.04000, 0.3053210
65.07000, 1.596502
65.10000, 0.0000000E+00
##END=



