##NAMES=Cyanotrichite
##RRUFFID=R070500
##IDEAL CHEMISTRY=Cu^2+^_4_Al_2_S^6+^O_4_(OH)_12_&#183;2H_2_O
##LOCALITY=Vieja mine, Portrerillos, Chanaral Province, Atacama Region, Chile
##OWNER=RRUFF
##SOURCE=James Shigley
##DESCRIPTION=Radial aggregates of sky-blue fibers associated with green brochantite
##DIFFRACTION SAMPLE DESCRIPTION=Powder, using Mo radiation
##STATUS=The identification of this mineral is not yet confirmed.
##URL=rruff.info/R070500
4.460000, 0.0000000E+00
4.490000, 4.5967001E-02
4.520000, 1.490982
4.550000, 1.835785
4.580000, 5.361061
4.610000, 5.869797
4.640000, 6.865501
4.670000, 7.731285
4.700000, 13.61884
4.730000, 16.72589
4.760000, 12.98592
4.790000, 5.563545
4.820000, 1.144218
4.850000, 8.595543
4.880000, 12.29105
4.910000, 12.37711
4.940000, 12.18491
4.970000, 11.83902
5.000000, 5.826904
5.030000, 3.067200
5.060000, 4.548256
5.090000, 5.483986
5.120000, 4.667534
5.150000, 0.8520430
5.180000, 1.065025
5.210000, 2.390060
5.240000, 2.798782
5.270000, 5.571846
5.300000, 14.71894
5.330000, 12.65480
5.360000, 14.18216
5.390000, 19.97268
5.420000, 15.52997
5.450000, 9.930710
5.480000, 11.67363
5.510000, 15.66348
5.540000, 16.62403
5.570000, 10.75605
5.600000, 4.055496
5.630000, 0.8167570
5.660000, 2.042046
5.690000, 5.444946
5.720000, 1.570763
5.750000, 0.6972050
5.780000, 2.716675
5.810000, 0.8855820
5.840000, 2.775871
5.870000, 5.042465
5.900000, 8.818321
5.930000, 14.82539
5.960000, 17.99160
5.990000, 16.82093
6.020000, 14.09632
6.050000, 15.28474
6.080000, 18.47714
6.110000, 21.20348
6.140000, 25.07371
6.170000, 24.70282
6.200000, 26.61236
6.230000, 21.23849
6.260000, 27.72459
6.290000, 25.98691
6.320000, 26.70963
6.350000, 29.98488
6.380000, 31.23363
6.410000, 35.36897
6.440000, 33.32386
6.470000, 29.21426
6.500000, 31.54314
6.530000, 30.13860
6.560000, 27.96057
6.590000, 27.72683
6.620000, 26.01913
6.650000, 20.93576
6.680000, 23.45242
6.710000, 20.88071
6.740000, 19.06676
6.770000, 24.34425
6.800000, 29.14722
6.830000, 30.78981
6.860000, 32.55861
6.890000, 26.91450
6.920000, 25.26256
6.950000, 27.70526
6.980000, 26.97662
7.010000, 25.13263
7.040000, 23.72829
7.070000, 21.35060
7.100000, 20.56155
7.130000, 26.16216
7.160000, 34.05238
7.190000, 38.37624
7.220000, 45.15874
7.250000, 55.44284
7.280000, 58.39157
7.310000, 59.09392
7.340000, 58.25684
7.370000, 49.71335
7.400000, 45.45549
7.430000, 42.01019
7.460000, 39.36346
7.490000, 46.43230
7.520000, 62.81870
7.550000, 76.32964
7.580000, 85.63612
7.610000, 93.98116
7.640000, 93.25070
7.670000, 83.45878
7.700000, 77.86834
7.730000, 73.68244
7.760000, 76.15499
7.790000, 83.07802
7.820000, 93.84855
7.850000, 102.9965
7.880000, 112.3169
7.910000, 124.1978
7.940000, 122.8541
7.970000, 109.4398
8.000000, 93.02096
8.030000, 75.67750
8.060000, 58.95024
8.090000, 50.59958
8.120000, 46.67317
8.150000, 44.19557
8.180000, 38.54910
8.210000, 31.93449
8.240000, 27.02524
8.270000, 25.46820
8.300000, 27.18364
8.330000, 30.19070
8.360000, 31.78201
8.390000, 33.22641
8.420000, 26.04636
8.450000, 22.05891
8.480000, 25.83925
8.510000, 26.28967
8.540000, 30.20613
8.570000, 32.43658
8.600000, 29.39970
8.630000, 27.71642
8.660000, 26.75977
8.690000, 23.93346
8.720000, 26.02289
8.750000, 28.20003
8.780000, 26.40113
8.810000, 23.14221
8.840000, 23.23634
8.870000, 27.27813
8.900000, 29.66730
8.930000, 30.54295
8.960000, 29.14461
8.990000, 28.29242
9.020000, 26.55757
9.050000, 26.90669
9.080000, 25.62985
9.110000, 25.03313
9.140000, 24.72962
9.170000, 23.86340
9.200000, 22.75523
9.230000, 24.35527
9.260000, 19.52287
9.290000, 16.72191
9.320000, 13.91209
9.350000, 14.22520
9.380000, 13.92550
9.410000, 16.32697
9.440000, 22.18858
9.470000, 24.31534
9.500000, 22.58922
9.530000, 23.22321
9.560000, 22.42032
9.590000, 20.26949
9.620000, 17.33675
9.650000, 11.71707
9.680000, 8.449455
9.710000, 11.02687
9.740000, 9.575142
9.770000, 15.03181
9.800000, 13.19829
9.830000, 16.96977
9.860000, 19.32425
9.890000, 21.85671
9.920000, 22.21415
9.950000, 20.12456
9.980000, 16.34093
10.01000, 14.65729
10.04000, 16.07060
10.07000, 18.20087
10.10000, 20.24707
10.13000, 17.72823
10.16000, 14.71632
10.19000, 16.36235
10.22000, 18.44632
10.25000, 20.04121
10.28000, 25.65901
10.31000, 29.20773
10.34000, 27.29433
10.37000, 25.81782
10.40000, 24.20120
10.43000, 23.67947
10.46000, 22.53062
10.49000, 19.65866
10.52000, 17.23859
10.55000, 19.63539
10.58000, 26.80307
10.61000, 39.96162
10.64000, 52.00502
10.67000, 55.42629
10.70000, 55.64039
10.73000, 49.98836
10.76000, 44.56813
10.79000, 39.39375
10.82000, 33.53178
10.85000, 25.15744
10.88000, 22.87450
10.91000, 15.91036
10.94000, 12.28204
10.97000, 10.04548
11.00000, 6.274712
11.03000, 7.501724
11.06000, 10.18349
11.09000, 14.80305
11.12000, 15.47433
11.15000, 15.20038
11.18000, 15.81018
11.21000, 13.55771
11.24000, 11.86897
11.27000, 13.02396
11.30000, 10.78566
11.33000, 12.11608
11.36000, 17.71819
11.39000, 18.29801
11.42000, 16.94553
11.45000, 16.59373
11.48000, 12.61961
11.51000, 9.397156
11.54000, 8.679375
11.57000, 7.136261
11.60000, 4.941391
11.63000, 8.921974
11.66000, 13.19701
11.69000, 11.95888
11.72000, 9.029564
11.75000, 8.856041
11.78000, 8.723305
11.81000, 8.677353
11.84000, 10.56326
11.87000, 12.25307
11.90000, 10.52047
11.93000, 7.955612
11.96000, 7.002121
11.99000, 6.585709
12.02000, 5.648697
12.05000, 4.584236
12.08000, 3.873375
12.11000, 2.621521
12.14000, 0.7038120
12.17000, 0.5234220
12.20000, 0.8408280
12.23000, 0.3333590
12.26000, 2.908447
12.29000, 2.169540
12.32000, 3.451019
12.35000, 3.992966
12.38000, 2.205627
12.41000, 3.674400
12.44000, 1.415375
12.47000, 2.706017
12.50000, 2.947205
12.53000, 1.742004
12.56000, 1.785324
12.59000, 3.899918
12.62000, 2.715919
12.65000, 1.909081
12.68000, 1.157341
12.71000, 0.9399030
12.74000, 0.7203520
12.77000, 1.005753
12.80000, 1.013260
12.83000, 2.165222
12.86000, 0.2950440
12.89000, 4.794991
12.92000, 6.821625
12.95000, 10.41087
12.98000, 13.55132
13.01000, 15.48944
13.04000, 16.18716
13.07000, 19.50950
13.10000, 21.98338
13.13000, 23.70978
13.16000, 22.47568
13.19000, 21.63309
13.22000, 21.78417
13.25000, 20.12402
13.28000, 17.54744
13.31000, 13.40614
13.34000, 10.26646
13.37000, 10.94213
13.40000, 8.814316
13.43000, 6.663231
13.46000, 8.913956
13.49000, 11.54759
13.52000, 13.74381
13.55000, 14.22875
13.58000, 14.44025
13.61000, 14.58116
13.64000, 13.38594
13.67000, 11.96888
13.70000, 10.32510
13.73000, 9.351578
13.76000, 6.962112
13.79000, 5.746925
13.82000, 1.772385
13.85000, 2.820229
13.88000, 1.442116
13.91000, 0.3481450
13.94000, 3.086098
13.97000, 2.853363
14.00000, 1.141182
14.03000, 3.187866
14.06000, 3.141541
14.09000, 4.193710
14.12000, 5.712067
14.15000, 4.189400
14.18000, 5.682808
14.21000, 5.903481
14.24000, 4.838409
14.27000, 6.436401
14.30000, 6.217842
14.33000, 6.007431
14.36000, 7.145248
14.39000, 8.099808
14.42000, 7.369690
14.45000, 7.817665
14.48000, 4.395721
14.51000, 6.285454
14.54000, 4.771484
14.57000, 1.909424
14.60000, 1.834152
14.63000, 4.056374
14.66000, 7.792870
14.69000, 10.05624
14.72000, 9.022591
14.75000, 8.604492
14.78000, 8.509369
14.81000, 10.96259
14.84000, 16.19736
14.87000, 20.83778
14.90000, 26.24194
14.93000, 29.00002
14.96000, 28.37124
14.99000, 30.63359
15.02000, 34.50507
15.05000, 38.55064
15.08000, 37.15636
15.11000, 31.00817
15.14000, 25.69029
15.17000, 22.07903
15.20000, 17.62964
15.23000, 15.05027
15.26000, 11.12897
15.29000, 8.914146
15.32000, 6.540703
15.35000, 3.810730
15.38000, 1.827980
15.41000, 0.1067500
15.44000, 1.350945
15.47000, 1.825348
15.50000, 1.013580
15.53000, 0.2609100
15.56000, 0.3693540
15.59000, 0.5672840
15.62000, 0.6748280
15.65000, 0.5143200
15.68000, 7.3821999E-02
15.71000, 0.5660170
15.74000, 8.9584000E-02
15.77000, 0.9754710
15.80000, 0.1216200
15.83000, 3.264626
15.86000, 3.756851
15.89000, 2.662735
15.92000, 1.761665
15.95000, 1.564728
15.98000, 1.509781
16.01000, 0.1065980
16.04000, 1.6472001E-02
16.07000, 0.1384660
16.10000, 2.004799
16.13000, 3.333656
16.16000, 3.163963
16.19000, 3.359962
16.22000, 4.480980
16.25000, 4.962692
16.28000, 4.811581
16.31000, 5.395187
16.34000, 6.050907
16.37000, 6.156940
16.40000, 4.866081
16.43000, 7.279373
16.46000, 10.89161
16.49000, 11.53325
16.52000, 10.25235
16.55000, 9.072166
16.58000, 9.540428
16.61000, 7.951054
16.64000, 7.913017
16.67000, 9.427505
16.70000, 8.221256
16.73000, 9.090626
16.76000, 13.54847
16.79000, 18.85890
16.82000, 25.77640
16.85000, 32.47903
16.88000, 40.35038
16.91000, 51.47204
16.94000, 64.31383
16.97000, 84.14228
17.00000, 99.48045
17.03000, 117.7083
17.06000, 139.0179
17.09000, 155.2471
17.12000, 172.7410
17.15000, 174.7046
17.18000, 183.7269
17.21000, 182.9029
17.24000, 173.2815
17.27000, 165.3317
17.30000, 145.7577
17.33000, 127.3191
17.36000, 114.3997
17.39000, 98.77837
17.42000, 85.85385
17.45000, 75.33565
17.48000, 65.96788
17.51000, 59.37579
17.54000, 53.73653
17.57000, 48.30877
17.60000, 40.41691
17.63000, 35.76313
17.66000, 30.92068
17.69000, 24.42237
17.72000, 20.63437
17.75000, 17.30495
17.78000, 12.81324
17.81000, 10.64994
17.84000, 10.16815
17.87000, 8.664364
17.90000, 9.780590
17.93000, 11.81432
17.96000, 11.45712
17.99000, 9.650307
18.02000, 11.57098
18.05000, 10.01160
18.08000, 8.672306
18.11000, 8.866489
18.14000, 5.564610
18.17000, 5.020973
18.20000, 4.614986
18.23000, 5.615070
18.26000, 6.269180
18.29000, 5.177723
18.32000, 3.985092
18.35000, 6.465092
18.38000, 6.120903
18.41000, 5.095642
18.44000, 6.409924
18.47000, 5.525154
18.50000, 6.568287
18.53000, 7.627808
18.56000, 5.707684
18.59000, 6.409615
18.62000, 7.976379
18.65000, 7.255116
18.68000, 8.501659
18.71000, 8.261021
18.74000, 9.274456
18.77000, 10.73898
18.80000, 10.07730
18.83000, 10.84282
18.86000, 9.877945
18.89000, 6.729767
18.92000, 5.757549
18.95000, 5.649185
18.98000, 6.677879
19.01000, 8.171341
19.04000, 9.486927
19.07000, 8.729858
19.10000, 7.551960
19.13000, 7.253521
19.16000, 5.979919
19.19000, 7.548328
19.22000, 8.905308
19.25000, 7.943443
19.28000, 6.752556
19.31000, 4.758221
19.34000, 3.293640
19.37000, 2.392929
19.40000, 2.392784
19.43000, 1.782486
19.46000, 0.6021800
19.49000, 0.2361150
19.52000, 0.2161370
19.55000, 5.3904999E-02
19.58000, 8.1688002E-02
19.61000, 1.4381000E-02
19.64000, 0.6299440
19.67000, 0.1970900
19.70000, 0.7631720
19.73000, 0.3971290
19.76000, 1.727276
19.79000, 2.332279
19.82000, 1.357250
19.85000, 2.064816
19.88000, 2.555180
19.91000, 1.338177
19.94000, 0.5536160
19.97000, 0.1094510
20.00000, 0.8056300
20.03000, 1.676922
20.06000, 1.727448
20.09000, 1.240803
20.12000, 1.170132
20.15000, 0.4611970
20.18000, 1.245987
20.21000, 2.257900
20.24000, 1.739983
20.27000, 2.251381
20.30000, 3.032555
20.33000, 1.802250
20.36000, 0.3292880
20.39000, 0.1371000
20.42000, 0.6996650
20.45000, 2.575504
20.48000, 4.255737
20.51000, 5.625729
20.54000, 7.174770
20.57000, 8.017067
20.60000, 8.890415
20.63000, 8.973316
20.66000, 10.17027
20.69000, 10.58567
20.72000, 9.825024
20.75000, 8.873734
20.78000, 8.770287
20.81000, 7.090092
20.84000, 5.504055
20.87000, 4.725426
20.90000, 3.869907
20.93000, 3.282627
20.96000, 3.439327
20.99000, 2.451874
21.02000, 3.007282
21.05000, 2.835670
21.08000, 0.3584290
21.11000, 0.6230620
21.14000, 0.6745570
21.17000, 1.929310
21.20000, 4.198334
21.23000, 4.824177
21.26000, 6.019501
21.29000, 7.019718
21.32000, 6.258553
21.35000, 6.401558
21.38000, 6.600410
21.41000, 7.212559
21.44000, 10.27664
21.47000, 13.95466
21.50000, 16.65860
21.53000, 18.84108
21.56000, 19.60009
21.59000, 18.91311
21.62000, 18.21323
21.65000, 19.97204
21.68000, 24.60986
21.71000, 28.49815
21.74000, 29.20307
21.77000, 27.90574
21.80000, 26.77843
21.83000, 28.35034
21.86000, 32.96964
21.89000, 35.31103
21.92000, 41.03963
21.95000, 51.40650
21.98000, 60.77271
22.01000, 65.31532
22.04000, 68.59295
22.07000, 71.57638
22.10000, 72.38136
22.13000, 72.02042
22.16000, 70.41074
22.19000, 64.89899
22.22000, 56.55986
22.25000, 49.92317
22.28000, 41.60123
22.31000, 32.42990
22.34000, 26.30569
22.37000, 22.99458
22.40000, 17.86893
22.43000, 15.07367
22.46000, 14.37658
22.49000, 11.76152
22.52000, 9.065083
22.55000, 9.736984
22.58000, 8.482029
22.61000, 7.251980
22.64000, 8.697571
22.67000, 5.730507
22.70000, 5.400890
22.73000, 5.974857
22.76000, 6.719536
22.79000, 7.119923
22.82000, 5.535877
22.85000, 3.572548
22.88000, 3.982323
22.91000, 3.905926
22.94000, 3.335781
22.97000, 4.490425
23.00000, 5.071400
23.03000, 4.611469
23.06000, 5.251743
23.09000, 4.876610
23.12000, 5.170677
23.15000, 5.725845
23.18000, 5.927780
23.21000, 6.396873
23.24000, 8.597435
23.27000, 9.408257
23.30000, 9.573734
23.33000, 10.34233
23.36000, 9.783127
23.39000, 9.771786
23.42000, 9.257141
23.45000, 7.502293
23.48000, 5.010811
23.51000, 2.891312
23.54000, 3.427834
23.57000, 4.025620
23.60000, 4.109772
23.63000, 4.276894
23.66000, 3.190273
23.69000, 2.269520
23.72000, 1.054382
23.75000, 1.168278
23.78000, 2.031296
23.81000, 2.481384
23.84000, 3.662163
23.87000, 4.175911
23.90000, 4.049667
23.93000, 5.261177
23.96000, 6.258110
23.99000, 5.330509
24.02000, 4.867485
24.05000, 5.519562
24.08000, 5.999935
24.11000, 5.121433
24.14000, 5.616058
24.17000, 5.808640
24.20000, 5.715427
24.23000, 4.481560
24.26000, 4.719711
24.29000, 4.367405
24.32000, 3.990517
24.35000, 4.434761
24.38000, 3.364815
24.41000, 3.795261
24.44000, 1.898136
24.47000, 1.177628
24.50000, 2.764973
24.53000, 3.340134
24.56000, 2.429947
24.59000, 1.321949
24.62000, 1.170063
24.65000, 0.7090380
24.68000, 0.6096340
24.71000, 0.6109770
24.74000, 0.2553250
24.77000, 0.6900670
24.80000, 1.5049000E-02
24.83000, 0.5058670
24.86000, 1.776642
24.89000, 2.700047
24.92000, 1.893604
24.95000, 1.112202
24.98000, 0.7724080
25.01000, 0.9077110
25.04000, 0.7361220
25.07000, 1.007332
25.10000, 1.325752
25.13000, 1.054214
25.16000, 1.381794
25.19000, 1.403313
25.22000, 2.096172
25.25000, 1.822800
25.28000, 1.495281
25.31000, 2.440426
25.34000, 1.803955
25.37000, 0.6483540
25.40000, 2.265778
25.43000, 2.383900
25.46000, 1.763924
25.49000, 2.283630
25.52000, 2.699337
25.55000, 1.298271
25.58000, 0.9124740
25.61000, 0.3427620
25.64000, 2.041071
25.67000, 1.268150
25.70000, 0.3752820
25.73000, 1.173895
25.76000, 1.873508
25.79000, 1.751778
25.82000, 1.379498
25.85000, 7.9581998E-02
25.88000, 0.3468590
25.91000, 0.9804130
25.94000, 0.2520070
25.97000, 0.1476570
26.00000, 8.6480998E-02
26.03000, 0.6776810
26.06000, 1.969707
26.09000, 2.943649
26.12000, 2.684160
26.15000, 1.900339
26.18000, 1.656385
26.21000, 1.111786
26.24000, 0.4720250
26.27000, 0.4946820
26.30000, 0.5910780
26.33000, 0.4597630
26.36000, 1.094091
26.39000, 1.234375
26.42000, 0.8150160
26.45000, 2.269039
26.48000, 3.763212
26.51000, 2.521294
26.54000, 2.047045
26.57000, 2.427235
26.60000, 1.899050
26.63000, 2.390821
26.66000, 3.477722
26.69000, 4.067575
26.72000, 3.723377
26.75000, 4.046646
26.78000, 3.911098
26.81000, 3.905418
26.84000, 4.469481
26.87000, 4.597261
26.90000, 4.663475
26.93000, 5.036964
26.96000, 4.930376
26.99000, 5.934191
27.02000, 4.463219
27.05000, 5.067326
27.08000, 4.037861
27.11000, 2.063469
27.14000, 2.250914
27.17000, 2.732351
27.20000, 2.353743
27.23000, 2.693226
27.26000, 2.936235
27.29000, 3.043392
27.32000, 3.243889
27.35000, 3.525448
27.38000, 3.487183
27.41000, 3.772322
27.44000, 3.923395
27.47000, 3.267563
27.50000, 2.746002
27.53000, 2.692955
27.56000, 3.086256
27.59000, 3.537415
27.62000, 4.259121
27.65000, 4.691040
27.68000, 6.021662
27.71000, 7.090250
27.74000, 7.760206
27.77000, 8.264540
27.80000, 7.416342
27.83000, 5.660723
27.86000, 3.937180
27.89000, 5.006512
27.92000, 5.891129
27.95000, 5.585228
27.98000, 6.520309
28.01000, 7.520178
28.04000, 8.502068
28.07000, 10.92178
28.10000, 13.63890
28.13000, 17.60275
28.16000, 22.03403
28.19000, 25.49055
28.22000, 28.19720
28.25000, 29.91530
28.28000, 32.31253
28.31000, 34.60787
28.34000, 33.89710
28.37000, 32.01726
28.40000, 32.02978
28.43000, 31.37048
28.46000, 27.06865
28.49000, 22.93628
28.52000, 18.45190
28.55000, 15.83673
28.58000, 14.69246
28.61000, 14.20871
28.64000, 13.72141
28.67000, 12.01366
28.70000, 10.24294
28.73000, 8.563381
28.76000, 7.495934
28.79000, 6.204594
28.82000, 5.635096
28.85000, 4.599857
28.88000, 3.806953
28.91000, 3.797613
28.94000, 2.897734
28.97000, 1.693026
29.00000, 1.446733
29.03000, 1.351498
29.06000, 2.582092
29.09000, 4.842686
29.12000, 7.194420
29.15000, 8.623447
29.18000, 11.18418
29.21000, 11.95981
29.24000, 13.18392
29.27000, 14.67913
29.30000, 16.16301
29.33000, 16.97501
29.36000, 19.86977
29.39000, 22.32875
29.42000, 21.88568
29.45000, 21.30986
29.48000, 19.52686
29.51000, 17.22369
29.54000, 15.62677
29.57000, 14.45781
29.60000, 12.17352
29.63000, 10.19373
29.66000, 9.025730
29.69000, 6.806433
29.72000, 2.922911
29.75000, 1.329933
29.78000, 0.7420460
29.81000, 0.6938950
29.84000, 1.331884
29.87000, 0.4103870
29.90000, 0.8581370
29.93000, 0.2126030
29.96000, 1.405582
29.99000, 1.952276
30.02000, 3.108543
30.05000, 4.658434
30.08000, 5.715075
30.11000, 5.504471
30.14000, 6.601418
30.17000, 5.086935
30.20000, 6.889711
30.23000, 6.216415
30.26000, 4.874372
30.29000, 5.461571
30.32000, 6.529308
30.35000, 5.383484
30.38000, 4.708590
30.41000, 5.243443
30.44000, 4.046331
30.47000, 2.093763
30.50000, 0.8647380
30.53000, 0.5503500
30.56000, 0.7912690
30.59000, 0.9558050
30.62000, 0.2106020
30.65000, 0.2812120
30.68000, 0.3304200
30.71000, 1.307220
30.74000, 2.563560
30.77000, 2.135529
30.80000, 1.816416
30.83000, 2.782526
30.86000, 1.889208
30.89000, 2.334156
30.92000, 1.058119
30.95000, 1.184858
30.98000, 0.9832480
31.01000, 0.9494800
31.04000, 2.084633
31.07000, 3.685009
31.10000, 4.963310
31.13000, 5.846592
31.16000, 7.327177
31.19000, 7.348049
31.22000, 7.833340
31.25000, 8.222353
31.28000, 8.257818
31.31000, 9.855137
31.34000, 10.92553
31.37000, 11.48515
31.40000, 10.67916
31.43000, 11.12024
31.46000, 10.74590
31.49000, 10.12199
31.52000, 10.09421
31.55000, 8.327332
31.58000, 9.622311
31.61000, 8.033775
31.64000, 5.229391
31.67000, 4.471876
31.70000, 4.833012
31.73000, 4.647295
31.76000, 4.234798
31.79000, 3.676130
31.82000, 4.953632
31.85000, 5.536503
31.88000, 4.048550
31.91000, 2.655565
31.94000, 1.240368
31.97000, 0.7304040
32.00000, 1.155384
32.03000, 1.958471
32.06000, 1.936766
32.09000, 3.539383
32.12000, 4.396744
32.15000, 4.824553
32.18000, 4.836519
32.21000, 4.887337
32.24000, 5.354420
32.27000, 5.386757
32.30000, 3.720137
32.33000, 2.057169
32.36000, 2.311647
32.39000, 1.974968
32.42000, 0.9629210
32.45000, 1.662113
32.48000, 1.764847
32.51000, 0.6375060
32.54000, 0.5141140
32.57000, 0.1403030
32.60000, 0.7636340
32.63000, 1.108572
32.66000, 0.3594070
32.69000, 0.3448200
32.72000, 2.194822
32.75000, 2.581533
32.78000, 1.912178
32.81000, 1.592537
32.84000, 1.850721
32.87000, 0.9383890
32.90000, 0.8294770
32.93000, 0.6108630
32.96000, 0.2256340
32.99000, 0.1433410
33.02000, 0.6285630
33.05000, 0.4991050
33.08000, 0.9328020
33.11000, 0.2899930
33.14000, 1.033545
33.17000, 0.3761230
33.20000, 0.6678540
33.23000, 0.3680210
33.26000, 0.5000610
33.29000, 0.3619560
33.32000, 1.699434
33.35000, 2.541130
33.38000, 0.9730260
33.41000, 0.8916360
33.44000, 1.461960
33.47000, 2.222713
33.50000, 2.682882
33.53000, 2.858160
33.56000, 1.893812
33.59000, 2.399727
33.62000, 2.315575
33.65000, 2.207224
33.68000, 2.920370
33.71000, 2.121367
33.74000, 2.982185
33.77000, 4.031521
33.80000, 3.365438
33.83000, 2.790960
33.86000, 1.586866
33.89000, 1.588078
33.92000, 1.114805
33.95000, 1.708338
33.98000, 1.238237
34.01000, 1.980722
34.04000, 2.457298
34.07000, 2.268278
34.10000, 0.6672630
34.13000, 0.7335570
34.16000, 0.3032880
34.19000, 0.6273840
34.22000, 1.109623
34.25000, 0.3864360
34.28000, 0.3019790
34.31000, 0.6132980
34.34000, 1.023928
34.37000, 2.857319
34.40000, 4.145590
34.43000, 4.970127
34.46000, 5.410234
34.49000, 6.035208
34.52000, 6.630602
34.55000, 7.286444
34.58000, 7.583437
34.61000, 8.574780
34.64000, 8.750088
34.67000, 9.065256
34.70000, 7.443691
34.73000, 7.441597
34.76000, 8.256996
34.79000, 8.469627
34.82000, 8.835316
34.85000, 8.283674
34.88000, 8.209881
34.91000, 7.122274
34.94000, 7.210535
34.97000, 6.243404
35.00000, 5.335268
35.03000, 5.102493
35.06000, 4.343784
35.09000, 3.396032
35.12000, 3.071440
35.15000, 2.102905
35.18000, 2.337826
35.21000, 2.107706
35.24000, 1.292046
35.27000, 0.6583400
35.30000, 0.3495980
35.33000, 1.012127
35.36000, 0.2132870
35.39000, 1.117733
35.42000, 2.161514
35.45000, 3.107355
35.48000, 2.837458
35.51000, 1.261818
35.54000, 0.1109410
35.57000, 0.2819790
35.60000, 0.5640580
35.63000, 1.497490
35.66000, 1.412981
35.69000, 1.999451
35.72000, 2.252348
35.75000, 3.748381
35.78000, 2.481026
35.81000, 1.757730
35.84000, 1.407284
35.87000, 2.825708
35.90000, 2.900599
35.93000, 2.329439
35.96000, 2.447035
35.99000, 1.997782
36.02000, 1.734282
36.05000, 1.410530
36.08000, 0.2649290
36.11000, 0.5168440
36.14000, 1.504339
36.17000, 0.7379800
36.20000, 0.4350340
36.23000, 0.3730810
36.26000, 0.7676640
36.29000, 0.4165940
36.32000, 0.2032550
36.35000, 0.5242370
36.38000, 0.5629690
36.41000, 0.5373670
36.44000, 0.2445600
36.47000, 0.4403150
36.50000, 0.5327610
36.53000, 0.4498580
36.56000, 0.6524870
36.59000, 0.5493870
36.62000, 0.8825470
36.65000, 1.311140
36.68000, 1.515160
36.71000, 1.319403
36.74000, 0.8293800
36.77000, 0.5699840
36.80000, 0.1696850
36.83000, 0.3474250
36.86000, 0.7367400
36.89000, 3.8033001E-02
36.92000, 1.738737
36.95000, 2.470871
36.98000, 2.450237
37.01000, 2.778728
37.04000, 1.979351
37.07000, 0.6203000
37.10000, 0.4997690
37.13000, 0.3498520
37.16000, 1.322365
37.19000, 2.160189
37.22000, 1.720932
37.25000, 1.022100
37.28000, 0.4758990
37.31000, 8.0794998E-02
37.34000, 0.3340260
37.37000, 0.8289240
37.40000, 0.1840440
37.43000, 0.9795000
37.46000, 1.477077
37.49000, 2.128485
37.52000, 1.844114
37.55000, 0.6509700
37.58000, 0.6964400
37.61000, 0.4786280
37.64000, 0.4714280
37.67000, 0.7994380
37.70000, 1.174376
37.73000, 1.278563
37.76000, 1.419832
37.79000, 0.7863160
37.82000, 1.380941
37.85000, 1.294067
37.88000, 0.7202550
37.91000, 1.631136
37.94000, 1.882046
37.97000, 1.388428
38.00000, 1.662756
38.03000, 1.189619
38.06000, 1.277910
38.09000, 1.556677
38.12000, 1.369627
38.15000, 1.928728
38.18000, 2.023466
38.21000, 1.561958
38.24000, 1.320082
38.27000, 0.9900380
38.30000, 1.233751
38.33000, 0.7107560
38.36000, 2.078213
38.39000, 3.312906
38.42000, 4.137629
38.45000, 2.717091
38.48000, 0.3372880
38.51000, 0.3105340
38.54000, 1.4965000E-02
38.57000, 1.009344
38.60000, 1.339861
38.63000, 1.113575
38.66000, 1.364363
38.69000, 2.564587
38.72000, 4.451744
38.75000, 6.740236
38.78000, 7.161976
38.81000, 6.009007
38.84000, 5.069609
38.87000, 4.874800
38.90000, 5.457405
38.93000, 6.084417
38.96000, 7.023346
38.99000, 7.548618
39.02000, 7.086725
39.05000, 7.645779
39.08000, 8.924887
39.11000, 10.06723
39.14000, 9.738651
39.17000, 9.001398
39.20000, 8.646049
39.23000, 8.374880
39.26000, 7.650078
39.29000, 7.990473
39.32000, 7.874641
39.35000, 7.409100
39.38000, 6.852032
39.41000, 6.695847
39.44000, 6.459452
39.47000, 6.214064
39.50000, 5.990726
39.53000, 6.274038
39.56000, 5.640200
39.59000, 5.109711
39.62000, 4.828672
39.65000, 3.003685
39.68000, 1.532448
39.71000, 0.8813500
39.74000, 1.291580
39.77000, 2.944447
39.80000, 3.583584
39.83000, 3.631416
39.86000, 3.409948
39.89000, 3.675867
39.92000, 2.336857
39.95000, 1.687384
39.98000, 0.3671860
40.01000, 0.1925790
40.04000, 0.3698160
40.07000, 0.4820190
40.10000, 1.656473
40.13000, 2.403212
40.16000, 1.747986
40.19000, 1.224506
40.22000, 1.204500
40.25000, 1.352438
40.28000, 0.9188210
40.31000, 0.9726940
40.34000, 0.7329200
40.37000, 0.7038900
40.40000, 0.5014900
40.43000, 0.4748520
40.46000, 0.5077590
40.49000, 0.4320350
40.52000, 1.611742
40.55000, 1.694693
40.58000, 1.706388
40.61000, 1.061525
40.64000, 0.5756090
40.67000, 0.8464090
40.70000, 0.7434350
40.73000, 0.2224750
40.76000, 0.2763120
40.79000, 1.057482
40.82000, 1.022892
40.85000, 1.670839
40.88000, 1.906042
40.91000, 2.082733
40.94000, 2.477024
40.97000, 2.782166
41.00000, 2.681425
41.03000, 1.768026
41.06000, 1.344179
41.09000, 1.626181
41.12000, 1.815643
41.15000, 0.8342690
41.18000, 0.9023860
41.21000, 1.940891
41.24000, 1.340668
41.27000, 0.4146190
41.30000, 1.194851
41.33000, 1.596701
41.36000, 1.302572
41.39000, 1.302303
41.42000, 0.3820270
41.45000, 0.3683410
41.48000, 9.0487003E-02
41.51000, 0.4511870
41.54000, 0.2047960
41.57000, 0.8790090
41.60000, 0.9278870
41.63000, 0.9575310
41.66000, 0.5679760
41.69000, 1.331722
41.72000, 1.793873
41.75000, 1.970882
41.78000, 1.011543
41.81000, 1.520456
41.84000, 1.439270
41.87000, 1.333883
41.90000, 2.050018
41.93000, 1.251896
41.96000, 1.615765
41.99000, 0.8442440
42.02000, 0.9106860
42.05000, 1.059652
42.08000, 0.2638440
42.11000, 1.549625
42.14000, 0.9841610
42.17000, 0.5695650
42.20000, 0.3955250
42.23000, 1.060083
42.26000, 2.285198
42.29000, 2.679020
42.32000, 3.043449
42.35000, 2.577990
42.38000, 2.731333
42.41000, 2.360701
42.44000, 1.960772
42.47000, 1.295959
42.50000, 0.5278800
42.53000, 1.081999
42.56000, 3.277515
42.59000, 3.525743
42.62000, 3.055477
42.65000, 3.742523
42.68000, 3.742083
42.71000, 4.016754
42.74000, 4.171864
42.77000, 2.764496
42.80000, 1.402952
42.83000, 0.1840310
42.86000, 0.3693080
42.89000, 1.905399
42.92000, 2.617523
42.95000, 2.690973
42.98000, 1.940657
43.01000, 0.3496720
43.04000, 0.3472980
43.07000, 1.255005
43.10000, 2.559547
43.13000, 2.408825
43.16000, 2.217436
43.19000, 2.126169
43.22000, 1.863476
43.25000, 1.746649
43.28000, 1.566948
43.31000, 1.700089
43.34000, 2.012718
43.37000, 2.572042
43.40000, 3.033718
43.43000, 3.512856
43.46000, 3.122845
43.49000, 1.031395
43.52000, 0.4480150
43.55000, 0.9426560
43.58000, 0.2755850
43.61000, 1.176378
43.64000, 2.843456
43.67000, 3.300385
43.70000, 3.435595
43.73000, 2.083509
43.76000, 1.075016
43.79000, 1.480309
43.82000, 2.634569
43.85000, 2.815392
43.88000, 2.196955
43.91000, 3.293257
43.94000, 3.833578
43.97000, 3.186289
44.00000, 4.243423
44.03000, 5.008978
44.06000, 5.479366
44.09000, 4.808891
44.12000, 5.611012
44.15000, 5.822733
44.18000, 6.009747
44.21000, 7.018137
44.24000, 7.024485
44.27000, 7.105158
44.30000, 5.938080
44.33000, 4.971323
44.36000, 5.065027
44.39000, 5.720097
44.42000, 5.384380
44.45000, 5.392611
44.48000, 5.455238
44.51000, 4.316942
44.54000, 4.099695
44.57000, 4.483889
44.60000, 3.352367
44.63000, 2.577091
44.66000, 2.140911
44.69000, 2.815739
44.72000, 3.206581
44.75000, 3.587479
44.78000, 3.313896
44.81000, 3.902596
44.84000, 3.185377
44.87000, 1.515392
44.90000, 0.1213510
44.93000, 0.4903550
44.96000, 1.101858
44.99000, 1.815035
45.02000, 2.653704
45.05000, 3.321646
45.08000, 3.181366
45.11000, 2.897488
45.14000, 2.137617
45.17000, 1.266058
45.20000, 0.8297900
45.23000, 1.197229
45.26000, 1.506220
45.29000, 1.499779
45.32000, 1.216063
45.35000, 0.5734140
45.38000, 2.329359
45.41000, 3.726933
45.44000, 3.224907
45.47000, 1.784719
45.50000, 1.685364
45.53000, 2.373346
45.56000, 2.865265
45.59000, 2.818436
45.62000, 3.572607
45.65000, 3.383314
45.68000, 3.364321
45.71000, 3.639462
45.74000, 3.600346
45.77000, 3.737331
45.80000, 4.033401
45.83000, 3.942291
45.86000, 3.082415
45.89000, 4.283201
45.92000, 0.9167440
45.95000, 0.8926810
45.98000, 1.961983
46.01000, 2.452351
46.04000, 1.485521
46.07000, 4.298792
46.10000, 3.668957
46.13000, 6.021334
46.16000, 8.331238
46.19000, 8.166140
46.22000, 7.783611
46.25000, 8.448069
46.28000, 10.30075
46.31000, 10.05806
46.34000, 9.508064
46.37000, 8.891884
46.40000, 8.777533
46.43000, 9.820934
46.46000, 11.24241
46.49000, 13.67495
46.52000, 14.40203
46.55000, 14.37821
46.58000, 14.26299
46.61000, 12.90763
46.64000, 13.06305
46.67000, 12.68972
46.70000, 12.57857
46.73000, 12.46102
46.76000, 11.03956
46.79000, 11.50295
46.82000, 11.90809
46.85000, 9.311848
46.88000, 8.785587
46.91000, 8.019915
46.94000, 7.281837
46.97000, 7.710232
47.00000, 6.552084
47.03000, 5.115023
47.06000, 5.483967
47.09000, 5.647743
47.12000, 3.806004
47.15000, 1.236717
47.18000, 6.0297001E-02
47.21000, 0.8529640
47.24000, 2.163147
47.27000, 3.960695
47.30000, 2.460125
47.33000, 1.093925
47.36000, 2.351555
47.39000, 2.998726
47.42000, 3.293020
47.45000, 3.543085
47.48000, 4.463953
47.51000, 5.609854
47.54000, 4.416035
47.57000, 1.752169
47.60000, 8.6374000E-02
47.63000, 2.719677
47.66000, 3.980743
47.69000, 4.520233
47.72000, 4.167526
47.75000, 3.681803
47.78000, 2.308138
47.81000, 0.3542080
47.84000, 0.1911180
47.87000, 0.5040380
47.90000, 2.044548
47.93000, 2.900200
47.96000, 3.740845
47.99000, 4.705173
48.02000, 5.095764
48.05000, 6.702505
48.08000, 5.258944
48.11000, 4.411966
48.14000, 2.266659
48.17000, 0.4305550
48.20000, 0.6105940
48.23000, 0.1078620
48.26000, 1.2243000E-02
48.29000, 0.0000000E+00
##END=



