##NAMES=Duftite
##RRUFFID=R040160
##IDEAL CHEMISTRY=Pb^2+^Cu^2+^As^5+^O_4_(OH)
##LOCALITY=Tsumeb mine, Tsumeb, Otavi District, Oshikoto, Namibia
##OWNER=RRUFF
##SOURCE=University of Arizona Mineral Museum
##DESCRIPTION=Green crystalline coating
##DIFFRACTION SAMPLE DESCRIPTION=Powder, using Mo radiation
##STATUS=The identification of this mineral has been confirmed by X-ray diffraction and chemical analysis
##URL=rruff.info/R040160
##MEASURED CHEMISTRY=(Pb_0.96_Zn_0.04_)_Î£=1_Cu_1.00_As_1.00_O_4_(OH); OH estimated by charge balance
##CELL PARAMETERS=a: 7.401(2) b: 9.435(2) c: 5.923(1) alpha: 90 beta: 90 gamma: 90 volume: 413.6(1) crystal system: orthorhombic
6.610000, 0.0000000E+00
6.640000, 5.167007
6.670000, 8.891052
6.700000, 11.93832
6.730000, 4.255829
6.760000, 1.533508
6.790000, 0.7190860
6.820000, 2.246643
6.850000, 6.569550
6.880000, 16.13232
6.910000, 21.18903
6.940000, 18.82004
6.970000, 14.55826
7.000000, 16.81732
7.030000, 16.80347
7.060000, 16.32721
7.090000, 15.54721
7.120000, 16.52841
7.150000, 11.07242
7.180000, 9.746368
7.210000, 5.763885
7.240000, 4.965240
7.270000, 8.381470
7.300000, 9.014923
7.330000, 9.175568
7.360000, 10.42261
7.390000, 12.44772
7.420000, 12.83167
7.450000, 13.65469
7.480000, 15.43527
7.510000, 14.23422
7.540000, 17.22794
7.570000, 17.60995
7.600000, 15.51627
7.630000, 16.64514
7.660000, 21.11636
7.690000, 21.25473
7.720000, 20.52130
7.750000, 16.02017
7.780000, 14.38559
7.810000, 14.91309
7.840000, 19.40488
7.870000, 24.27353
7.900000, 30.47348
7.930000, 36.38412
7.960000, 43.33585
7.990000, 50.63202
8.020000, 56.86707
8.050000, 65.94049
8.080000, 70.20395
8.110000, 70.01318
8.140000, 67.75073
8.170000, 59.36951
8.200000, 47.42511
8.230000, 41.36731
8.260000, 44.47720
8.290000, 45.40646
8.320000, 36.63791
8.350000, 32.17221
8.380000, 31.37524
8.410000, 32.93414
8.440000, 36.71082
8.470000, 35.58984
8.500000, 34.16364
8.530000, 39.15836
8.560000, 45.33798
8.590000, 45.87515
8.620000, 48.22192
8.650000, 45.42813
8.680000, 47.21472
8.710000, 44.87637
8.740000, 41.27725
8.770000, 32.58762
8.800000, 24.40564
8.830000, 15.24835
8.860000, 10.72482
8.890000, 14.59726
8.920000, 13.16959
8.950000, 10.44882
8.980000, 11.02008
9.010000, 9.263275
9.040000, 6.804565
9.070000, 7.909760
9.100000, 10.03094
9.130000, 8.543030
9.160000, 7.155975
9.190000, 6.999786
9.220000, 11.80148
9.250000, 19.26508
9.280000, 25.25949
9.310000, 24.25064
9.340000, 21.46661
9.370000, 19.01019
9.400000, 19.41736
9.430000, 21.96695
9.460000, 26.74432
9.490000, 33.95511
9.520000, 43.35226
9.550000, 56.80273
9.580000, 70.89554
9.610000, 81.52515
9.640000, 93.00211
9.670000, 103.4880
9.700000, 113.6934
9.730000, 120.7657
9.760000, 132.0011
9.790000, 137.6203
9.820000, 137.2034
9.850000, 133.6083
9.880000, 129.6436
9.910000, 121.4496
9.940000, 116.3440
9.970000, 109.4470
10.00000, 98.17639
10.03000, 84.79523
10.06000, 71.60034
10.09000, 62.24176
10.12000, 50.02341
10.15000, 39.79224
10.18000, 34.07962
10.21000, 33.98132
10.24000, 36.89865
10.27000, 32.87509
10.30000, 27.88080
10.33000, 29.42786
10.36000, 29.61633
10.39000, 29.04141
10.42000, 29.29318
10.45000, 26.96277
10.48000, 28.21350
10.51000, 26.18277
10.54000, 19.99191
10.57000, 12.56171
10.60000, 9.690552
10.63000, 13.15192
10.66000, 18.49042
10.69000, 22.78860
10.72000, 22.49811
10.75000, 24.74863
10.78000, 27.42886
10.81000, 31.70547
10.84000, 34.64627
10.87000, 34.58002
10.90000, 42.30145
10.93000, 52.40839
10.96000, 56.21262
10.99000, 53.35199
11.02000, 52.53229
11.05000, 57.70731
11.08000, 61.47299
11.11000, 59.65213
11.14000, 54.11368
11.17000, 45.05234
11.20000, 36.80911
11.23000, 29.08582
11.26000, 23.92847
11.29000, 20.33984
11.32000, 16.32077
11.35000, 14.30435
11.38000, 13.80966
11.41000, 12.99927
11.44000, 16.95230
11.47000, 20.18738
11.50000, 22.40271
11.53000, 24.35513
11.56000, 24.97220
11.59000, 26.08719
11.62000, 25.46429
11.65000, 27.12741
11.68000, 28.66525
11.71000, 29.67694
11.74000, 27.77460
11.77000, 28.78055
11.80000, 31.64078
11.83000, 37.05243
11.86000, 39.21115
11.89000, 39.94879
11.92000, 34.27402
11.95000, 29.51160
11.98000, 28.01443
12.01000, 22.76639
12.04000, 22.16589
12.07000, 16.72345
12.10000, 21.36462
12.13000, 20.73987
12.16000, 22.00522
12.19000, 26.42160
12.22000, 28.46198
12.25000, 33.58038
12.28000, 34.87570
12.31000, 34.93298
12.34000, 34.12411
12.37000, 35.42517
12.40000, 38.13907
12.43000, 38.61972
12.46000, 33.75421
12.49000, 25.51645
12.52000, 23.27240
12.55000, 31.50595
12.58000, 43.49722
12.61000, 55.30408
12.64000, 69.25842
12.67000, 82.11740
12.70000, 95.59381
12.73000, 115.5598
12.76000, 132.8511
12.79000, 146.5989
12.82000, 160.0631
12.85000, 185.5845
12.88000, 216.3503
12.91000, 252.9463
12.94000, 295.4416
12.97000, 336.3673
13.00000, 369.1846
13.03000, 392.1565
13.06000, 385.5511
13.09000, 362.8144
13.12000, 316.4792
13.15000, 266.1406
13.18000, 216.2044
13.21000, 162.5945
13.24000, 112.5299
13.27000, 72.39575
13.30000, 52.95584
13.33000, 39.15781
13.36000, 29.69183
13.39000, 28.85248
13.42000, 28.89322
13.45000, 27.03912
13.48000, 30.06622
13.51000, 33.46948
13.54000, 34.69150
13.57000, 41.22128
13.60000, 51.40976
13.63000, 61.92566
13.66000, 82.70810
13.69000, 104.8799
13.72000, 126.3720
13.75000, 151.1556
13.78000, 180.2142
13.81000, 215.4879
13.84000, 257.1094
13.87000, 303.8976
13.90000, 346.7253
13.93000, 383.1804
13.96000, 409.9688
13.99000, 419.2664
14.02000, 423.0997
14.05000, 423.0180
14.08000, 413.3023
14.11000, 390.6510
14.14000, 358.7837
14.17000, 316.5189
14.20000, 268.2849
14.23000, 219.8136
14.26000, 176.8310
14.29000, 138.3780
14.32000, 107.3525
14.35000, 83.83853
14.38000, 65.53101
14.41000, 48.57687
14.44000, 35.65109
14.47000, 30.03964
14.50000, 27.05945
14.53000, 20.80853
14.56000, 14.17380
14.59000, 9.858246
14.62000, 9.670807
14.65000, 9.478485
14.68000, 10.34021
14.71000, 10.76495
14.74000, 10.32162
14.77000, 9.607452
14.80000, 9.539032
14.83000, 8.362549
14.86000, 8.024933
14.89000, 8.638184
14.92000, 6.998138
14.95000, 5.459869
14.98000, 4.062408
15.01000, 0.1434330
15.04000, 1.763397
15.07000, 4.730865
15.10000, 6.367920
15.13000, 14.32260
15.16000, 27.05679
15.19000, 43.84851
15.22000, 65.15372
15.25000, 89.19739
15.28000, 120.6147
15.31000, 159.6972
15.34000, 200.2902
15.37000, 237.6062
15.40000, 275.7722
15.43000, 308.3337
15.46000, 346.9457
15.49000, 384.4468
15.52000, 414.8116
15.55000, 444.3654
15.58000, 467.7900
15.61000, 475.9196
15.64000, 475.6234
15.67000, 459.3042
15.70000, 423.3699
15.73000, 376.6017
15.76000, 325.3354
15.79000, 271.3911
15.82000, 212.9816
15.85000, 169.7789
15.88000, 131.9611
15.91000, 97.29419
15.94000, 68.18600
15.97000, 51.08560
16.00000, 38.09897
16.03000, 32.82800
16.06000, 32.14481
16.09000, 34.82220
16.12000, 37.40430
16.15000, 39.14200
16.18000, 38.01825
16.21000, 39.77011
16.24000, 43.69049
16.27000, 44.95044
16.30000, 37.76181
16.33000, 30.08771
16.36000, 25.94504
16.39000, 22.17682
16.42000, 18.72198
16.45000, 15.08420
16.48000, 13.09042
16.51000, 8.683960
16.54000, 5.901917
16.57000, 3.561890
16.60000, 0.1291200
16.63000, 3.787872
16.66000, 5.810394
16.69000, 4.449829
16.72000, 2.137573
16.75000, 0.7228700
16.78000, 2.301636
16.81000, 2.869476
16.84000, 4.093506
16.87000, 9.941010
16.90000, 14.42172
16.93000, 18.02954
16.96000, 23.30450
16.99000, 27.56415
17.02000, 31.29355
17.05000, 34.84772
17.08000, 31.46432
17.11000, 25.91348
17.14000, 22.34079
17.17000, 19.79315
17.20000, 15.41586
17.23000, 8.702301
17.26000, 1.563354
17.29000, 3.149811
17.32000, 5.513611
17.35000, 6.011261
17.38000, 5.839661
17.41000, 6.995087
17.44000, 8.062836
17.47000, 8.240753
17.50000, 11.17358
17.53000, 10.82434
17.56000, 10.43558
17.59000, 11.35205
17.62000, 8.345978
17.65000, 5.062164
17.68000, 0.9458620
17.71000, 2.372070
17.74000, 4.382874
17.77000, 7.520508
17.80000, 8.521240
17.83000, 11.00610
17.86000, 15.06018
17.89000, 15.44742
17.92000, 16.79382
17.95000, 20.89230
17.98000, 28.49091
18.01000, 35.43262
18.04000, 46.55746
18.07000, 52.16757
18.10000, 58.22006
18.13000, 63.54196
18.16000, 66.52780
18.19000, 67.25470
18.22000, 68.45352
18.25000, 66.52832
18.28000, 67.47705
18.31000, 63.16418
18.34000, 63.54828
18.37000, 52.80972
18.40000, 45.21906
18.43000, 37.28522
18.46000, 32.17624
18.49000, 28.84113
18.52000, 24.63876
18.55000, 20.52328
18.58000, 15.54251
18.61000, 12.46747
18.64000, 11.50323
18.67000, 13.51379
18.70000, 12.96704
18.73000, 10.45404
18.76000, 11.43073
18.79000, 10.59415
18.82000, 6.952209
18.85000, 4.688965
18.88000, 2.745056
18.91000, 1.213898
18.94000, 0.7895510
18.97000, 1.9409001E-02
19.00000, 1.330414
19.03000, 1.950470
19.06000, 3.316925
19.09000, 5.051270
19.12000, 5.571808
19.15000, 9.924591
19.18000, 10.26910
19.21000, 18.81207
19.24000, 26.37656
19.27000, 31.45749
19.30000, 34.01379
19.33000, 37.94177
19.36000, 39.16223
19.39000, 41.50516
19.42000, 46.61557
19.45000, 52.85245
19.48000, 56.96573
19.51000, 59.66345
19.54000, 62.93561
19.57000, 65.33920
19.60000, 68.97018
19.63000, 74.24655
19.66000, 77.51938
19.69000, 77.95456
19.72000, 75.35614
19.75000, 72.20706
19.78000, 69.66843
19.81000, 68.07910
19.84000, 62.61414
19.87000, 54.48148
19.90000, 45.37622
19.93000, 33.94125
19.96000, 25.84659
19.99000, 20.20630
20.02000, 13.90329
20.05000, 10.66760
20.08000, 8.066193
20.11000, 7.197906
20.14000, 4.863586
20.17000, 4.091705
20.20000, 2.918091
20.23000, 2.317780
20.26000, 2.514496
20.29000, 2.089569
20.32000, 3.500580
20.35000, 4.302734
20.38000, 4.267365
20.41000, 3.545441
20.44000, 4.328613
20.47000, 7.503448
20.50000, 6.160858
20.53000, 11.06509
20.56000, 6.017212
20.59000, 3.863098
20.62000, 3.741333
20.65000, 4.046539
20.68000, 6.622849
20.71000, 6.643646
20.74000, 7.620972
20.77000, 9.473816
20.80000, 9.145096
20.83000, 12.20927
20.86000, 13.75439
20.89000, 16.15398
20.92000, 16.51004
20.95000, 14.15050
20.98000, 10.99721
21.01000, 9.906631
21.04000, 9.473831
21.07000, 7.665604
21.10000, 8.271515
21.13000, 7.644272
21.16000, 5.209427
21.19000, 2.361450
21.22000, 0.3495790
21.25000, 0.6333920
21.28000, 0.5565490
21.31000, 0.9384770
21.34000, 3.896667
21.37000, 8.676117
21.40000, 8.142090
21.43000, 11.60538
21.46000, 11.82681
21.49000, 15.48851
21.52000, 17.12672
21.55000, 19.05949
21.58000, 19.68790
21.61000, 23.11783
21.64000, 23.86234
21.67000, 25.10544
21.70000, 30.83611
21.73000, 37.20836
21.76000, 42.98219
21.79000, 49.83968
21.82000, 56.84474
21.85000, 65.40543
21.88000, 77.67075
21.91000, 94.30972
21.94000, 112.9713
21.97000, 128.0075
22.00000, 143.7004
22.03000, 153.9959
22.06000, 161.4081
22.09000, 166.5780
22.12000, 164.6655
22.15000, 159.6898
22.18000, 153.8537
22.21000, 139.1153
22.24000, 126.8896
22.27000, 114.9456
22.30000, 97.06932
22.33000, 79.29176
22.36000, 62.72789
22.39000, 47.38477
22.42000, 39.91736
22.45000, 34.75052
22.48000, 28.31061
22.51000, 22.40051
22.54000, 18.82527
22.57000, 17.60918
22.60000, 18.65465
22.63000, 19.92671
22.66000, 21.83864
22.69000, 23.96996
22.72000, 20.87022
22.75000, 14.99365
22.78000, 11.42599
22.81000, 9.165222
22.84000, 6.385300
22.87000, 4.391327
22.90000, 7.100128
22.93000, 9.858871
22.96000, 10.33871
22.99000, 12.80064
23.02000, 13.85747
23.05000, 13.94928
23.08000, 16.71501
23.11000, 22.41373
23.14000, 28.35838
23.17000, 35.27304
23.20000, 42.97169
23.23000, 54.32533
23.26000, 66.23798
23.29000, 74.60460
23.32000, 82.74226
23.35000, 86.51294
23.38000, 89.68262
23.41000, 95.47438
23.44000, 101.0052
23.47000, 105.4070
23.50000, 108.5439
23.53000, 111.2859
23.56000, 114.6410
23.59000, 111.6702
23.62000, 105.1275
23.65000, 94.24084
23.68000, 81.46704
23.71000, 71.36926
23.74000, 61.31686
23.77000, 53.53462
23.80000, 44.68590
23.83000, 38.94257
23.86000, 29.65411
23.89000, 22.05154
23.92000, 15.88840
23.95000, 12.29549
23.98000, 6.286667
24.01000, 0.1788790
24.04000, 1.158157
24.07000, 1.611618
24.10000, 4.564255
24.13000, 2.437134
24.16000, 1.649887
24.19000, 15.69733
24.22000, 10.09982
24.25000, 10.02254
24.28000, 5.118271
24.31000, 0.9627080
24.34000, 2.085815
24.37000, 1.243011
24.40000, 2.945068
24.43000, 4.534348
24.46000, 6.484406
24.49000, 6.224319
24.52000, 3.977356
24.55000, 2.167130
24.58000, 0.8994290
24.61000, 6.852448
24.64000, 12.10149
24.67000, 13.55414
24.70000, 12.11578
24.73000, 15.21893
24.76000, 23.40407
24.79000, 32.59114
24.82000, 42.58998
24.85000, 50.24471
24.88000, 61.37369
24.91000, 72.21228
24.94000, 83.00864
24.97000, 97.19618
25.00000, 108.5771
25.03000, 123.9561
25.06000, 140.8288
25.09000, 152.5662
25.12000, 159.6126
25.15000, 167.1039
25.18000, 171.1380
25.21000, 168.2130
25.24000, 160.6738
25.27000, 151.9724
25.30000, 141.7238
25.33000, 125.7521
25.36000, 106.8120
25.39000, 85.79892
25.42000, 69.54564
25.45000, 53.71373
25.48000, 38.86595
25.51000, 26.09396
25.54000, 19.25084
25.57000, 16.86159
25.60000, 13.24124
25.63000, 11.79576
25.66000, 13.03122
25.69000, 14.27354
25.72000, 18.78583
25.75000, 26.15303
25.78000, 36.79518
25.81000, 42.39929
25.84000, 46.19041
25.87000, 54.84749
25.90000, 60.69156
25.93000, 66.36557
25.96000, 74.44258
25.99000, 82.32259
26.02000, 86.87856
26.05000, 90.78165
26.08000, 94.34818
26.11000, 97.02197
26.14000, 99.22961
26.17000, 100.4445
26.20000, 101.5663
26.23000, 101.1947
26.26000, 100.3745
26.29000, 94.71855
26.32000, 86.57573
26.35000, 83.41800
26.38000, 79.58731
26.41000, 73.03371
26.44000, 67.12219
26.47000, 58.87595
26.50000, 53.52161
26.53000, 48.14871
26.56000, 39.91428
26.59000, 29.78426
26.62000, 21.27330
26.65000, 15.43948
26.68000, 9.920807
26.71000, 7.012238
26.74000, 6.022781
26.77000, 4.226486
26.80000, 5.208359
26.83000, 3.647339
26.86000, 2.926483
26.89000, 5.907791
26.92000, 9.076279
26.95000, 12.68593
26.98000, 12.67075
27.01000, 13.53673
27.04000, 14.59790
27.07000, 15.89429
27.10000, 18.85583
27.13000, 23.19763
27.16000, 27.37660
27.19000, 31.32379
27.22000, 32.63217
27.25000, 32.47578
27.28000, 34.46671
27.31000, 36.73804
27.34000, 35.25301
27.37000, 32.11578
27.40000, 29.82358
27.43000, 30.62840
27.46000, 30.06427
27.49000, 30.24518
27.52000, 29.20290
27.55000, 29.25233
27.58000, 30.14346
27.61000, 31.36346
27.64000, 28.66187
27.67000, 29.74516
27.70000, 34.45584
27.73000, 38.94121
27.76000, 43.40710
27.79000, 45.34155
27.82000, 51.02998
27.85000, 57.30528
27.88000, 59.14320
27.91000, 55.88266
27.94000, 53.71002
27.97000, 52.44379
28.00000, 54.10611
28.03000, 54.51111
28.06000, 49.35515
28.09000, 45.52512
28.12000, 44.33072
28.15000, 39.00827
28.18000, 35.64012
28.21000, 32.11989
28.24000, 30.67107
28.27000, 30.07080
28.30000, 27.55798
28.33000, 26.03860
28.36000, 21.16681
28.39000, 17.91562
28.42000, 16.83047
28.45000, 15.88274
28.48000, 10.87712
28.51000, 7.192612
28.54000, 5.649948
28.57000, 3.681946
28.60000, 4.956207
28.63000, 9.865280
28.66000, 11.18263
28.69000, 6.927078
28.72000, 3.388977
28.75000, 3.871002
28.78000, 5.235443
28.81000, 8.054169
28.84000, 14.73019
28.87000, 22.61646
28.90000, 32.44104
28.93000, 40.47820
28.96000, 51.49232
28.99000, 60.20049
29.02000, 63.27144
29.05000, 64.90921
29.08000, 68.30061
29.11000, 71.36946
29.14000, 73.36163
29.17000, 70.78540
29.20000, 67.76642
29.23000, 65.60434
29.26000, 62.55421
29.29000, 61.24084
29.32000, 59.25867
29.35000, 59.49825
29.38000, 57.58418
29.41000, 58.29852
29.44000, 60.48685
29.47000, 54.61336
29.50000, 49.11008
29.53000, 50.32594
29.56000, 47.06207
29.59000, 41.74133
29.62000, 39.65479
29.65000, 39.00745
29.68000, 40.71129
29.71000, 37.83130
29.74000, 34.12448
29.77000, 33.34186
29.80000, 31.90642
29.83000, 26.31511
29.86000, 22.65900
29.89000, 18.69299
29.92000, 13.71417
29.95000, 12.39752
29.98000, 9.391022
30.01000, 6.374664
30.04000, 4.528473
30.07000, 2.243484
30.10000, 1.200348
30.13000, 1.125381
30.16000, 1.431427
30.19000, 4.095383
30.22000, 7.652512
30.25000, 8.686752
30.28000, 7.567154
30.31000, 5.986725
30.34000, 3.769409
30.37000, 4.444260
30.40000, 8.235229
30.43000, 10.13837
30.46000, 12.64763
30.49000, 15.08502
30.52000, 13.91159
30.55000, 9.135269
30.58000, 7.144073
30.61000, 9.903015
30.64000, 13.84009
30.67000, 19.09830
30.70000, 19.18803
30.73000, 23.64709
30.76000, 19.32669
30.79000, 16.08443
30.82000, 14.06126
30.85000, 12.83722
30.88000, 13.43631
30.91000, 13.06349
30.94000, 13.27951
30.97000, 10.64923
31.00000, 15.16376
31.03000, 16.29449
31.06000, 19.55145
31.09000, 25.69449
31.12000, 28.04965
31.15000, 30.04083
31.18000, 36.21512
31.21000, 41.43661
31.24000, 40.88255
31.27000, 40.26805
31.30000, 38.33090
31.33000, 36.95049
31.36000, 34.33022
31.39000, 30.59097
31.42000, 29.84180
31.45000, 30.23363
31.48000, 24.75851
31.51000, 19.92149
31.54000, 14.92502
31.57000, 15.32887
31.60000, 14.19653
31.63000, 8.678421
31.66000, 4.744400
31.69000, 0.9390410
31.72000, 1.308304
31.75000, 1.756210
31.78000, 3.481796
31.81000, 4.903427
31.84000, 6.774109
31.87000, 2.255875
31.90000, 2.089340
31.93000, 2.102707
31.96000, 0.7847750
31.99000, 1.632233
32.02000, 7.2754003E-02
32.05000, 2.018906
32.08000, 4.523743
32.11000, 4.418076
32.14000, 2.257904
32.17000, 0.7770690
32.20000, 1.438171
32.23000, 1.768936
32.26000, 0.6743470
32.29000, 2.070343
32.32000, 8.2015999E-02
32.35000, 0.2995300
32.38000, 3.115509
32.41000, 3.460556
32.44000, 2.671600
32.47000, 1.692581
32.50000, 3.060455
32.53000, 7.583359
32.56000, 3.251541
32.59000, 1.561707
32.62000, 4.381912
32.65000, 3.057739
32.68000, 1.297806
32.71000, 3.388580
32.74000, 4.673019
32.77000, 3.361282
32.80000, 2.220016
32.83000, 2.624359
32.86000, 1.861221
32.89000, 2.409882
32.92000, 3.381454
32.95000, 1.985947
32.98000, 0.7522740
33.01000, 3.440369
33.04000, 6.203369
33.07000, 6.199249
33.10000, 9.770020
33.13000, 14.76970
33.16000, 12.33829
33.19000, 7.622772
33.22000, 8.310135
33.25000, 10.84741
33.28000, 13.29553
33.31000, 14.12358
33.34000, 15.66647
33.37000, 16.81529
33.40000, 17.66309
33.43000, 20.84615
33.46000, 22.93521
33.49000, 23.98915
33.52000, 20.90776
33.55000, 23.16594
33.58000, 23.28421
33.61000, 23.31445
33.64000, 26.32379
33.67000, 23.84328
33.70000, 26.77394
33.73000, 26.73657
33.76000, 26.09879
33.79000, 26.58389
33.82000, 27.43987
33.85000, 24.65771
33.88000, 22.17844
33.91000, 19.57802
33.94000, 15.21246
33.97000, 11.70879
34.00000, 12.52699
34.03000, 11.65204
34.06000, 11.34708
34.09000, 9.881775
34.12000, 12.79041
34.15000, 15.21895
34.18000, 17.63333
34.21000, 17.12057
34.24000, 17.50368
34.27000, 16.22067
34.30000, 14.51352
34.33000, 13.38222
34.36000, 12.76297
34.39000, 10.59019
34.42000, 12.50046
34.45000, 11.37759
34.48000, 12.37854
34.51000, 15.53137
34.54000, 17.94705
34.57000, 22.90814
34.60000, 25.76868
34.63000, 22.49860
34.66000, 21.28664
34.69000, 20.36850
34.72000, 19.27921
34.75000, 19.46274
34.78000, 19.11913
34.81000, 18.86867
34.84000, 18.84973
34.87000, 18.67238
34.90000, 18.67027
34.93000, 18.48399
34.96000, 18.51355
34.99000, 20.60144
35.02000, 28.85162
35.05000, 30.48962
35.08000, 32.47246
35.11000, 36.51207
35.14000, 35.85043
35.17000, 35.32503
35.20000, 35.39958
35.23000, 37.60886
35.26000, 36.99048
35.29000, 35.47113
35.32000, 37.58328
35.35000, 35.72502
35.38000, 33.45590
35.41000, 36.30807
35.44000, 36.81335
35.47000, 36.28238
35.50000, 35.06111
35.53000, 32.22963
35.56000, 28.05003
35.59000, 23.34221
35.62000, 21.86603
35.65000, 24.10841
35.68000, 22.07332
35.71000, 18.96863
35.74000, 15.75941
35.77000, 13.67912
35.80000, 13.07014
35.83000, 12.21407
35.86000, 11.00798
35.89000, 8.911606
35.92000, 7.593231
35.95000, 8.595612
35.98000, 11.78680
36.01000, 11.63091
36.04000, 11.26584
36.07000, 11.60565
36.10000, 10.11699
36.13000, 8.202499
36.16000, 4.759155
36.19000, 2.259155
36.22000, 0.4705200
36.25000, 0.9418640
36.28000, 0.9947970
36.31000, 1.836075
36.34000, 3.791382
36.37000, 2.714813
36.40000, 2.708725
36.43000, 1.077148
36.46000, 3.775513
36.49000, 7.887344
36.52000, 7.932190
36.55000, 9.423035
36.58000, 12.24463
36.61000, 18.81741
36.64000, 22.52715
36.67000, 26.96187
36.70000, 33.85130
36.73000, 38.00096
36.76000, 41.59564
36.79000, 42.99631
36.82000, 41.92899
36.85000, 43.57254
36.88000, 48.82301
36.91000, 52.30835
36.94000, 57.16164
36.97000, 59.70726
37.00000, 62.73679
37.03000, 63.42874
37.06000, 63.89557
37.09000, 63.52539
37.12000, 65.02031
37.15000, 63.53918
37.18000, 62.41934
37.21000, 61.02946
37.24000, 58.51906
37.27000, 55.78349
37.30000, 53.68103
37.33000, 51.45599
37.36000, 47.86302
37.39000, 47.95335
37.42000, 45.06458
37.45000, 44.30862
37.48000, 43.84656
37.51000, 41.88432
37.54000, 40.73645
37.57000, 36.86548
37.60000, 36.57178
37.63000, 35.21407
37.66000, 31.48752
37.69000, 30.31242
37.72000, 31.58044
37.75000, 31.14133
37.78000, 28.97012
37.81000, 26.74274
37.84000, 28.65921
37.87000, 30.25949
37.90000, 31.44559
37.93000, 30.36751
37.96000, 26.95416
37.99000, 24.23354
38.02000, 19.16962
38.05000, 15.44873
38.08000, 9.893982
38.11000, 7.070129
38.14000, 2.732895
38.17000, 0.1838380
38.20000, 0.2513120
38.23000, 4.674011
38.26000, 8.023376
38.29000, 9.942795
38.32000, 10.74725
38.35000, 11.67578
38.38000, 12.00815
38.41000, 11.51845
38.44000, 11.02835
38.47000, 9.135132
38.50000, 6.620331
38.53000, 3.719559
38.56000, 2.822739
38.59000, 3.803909
38.62000, 5.762955
38.65000, 7.130020
38.68000, 5.341064
38.71000, 3.342682
38.74000, 2.376373
38.77000, 1.012756
38.80000, 1.304428
38.83000, 0.3948520
38.86000, 3.536011
38.89000, 1.526596
38.92000, 3.453094
38.95000, 5.533951
38.98000, 3.819031
39.01000, 3.289673
39.04000, 6.504166
39.07000, 10.10562
39.10000, 9.557678
39.13000, 8.207352
39.16000, 9.942032
39.19000, 14.33380
39.22000, 16.77660
39.25000, 19.34996
39.28000, 23.09462
39.31000, 20.89941
39.34000, 17.56133
39.37000, 14.18843
39.40000, 13.96822
39.43000, 17.63518
39.46000, 18.71841
39.49000, 18.83669
39.52000, 17.44806
39.55000, 17.97968
39.58000, 19.08510
39.61000, 21.08583
39.64000, 22.68556
39.67000, 16.30832
39.70000, 12.92509
39.73000, 15.62601
39.76000, 16.51796
39.79000, 17.96542
39.82000, 18.36427
39.85000, 16.84779
39.88000, 15.69214
39.91000, 16.80182
39.94000, 17.17274
39.97000, 17.74823
40.00000, 17.20319
40.03000, 17.53964
40.06000, 15.97737
40.09000, 16.11719
40.12000, 16.04012
40.15000, 13.12091
40.18000, 9.168182
40.21000, 6.503387
40.24000, 6.554825
40.27000, 4.609787
40.30000, 9.133591
40.33000, 12.50580
40.36000, 16.60097
40.39000, 18.02438
40.42000, 18.99573
40.45000, 18.59547
40.48000, 16.93295
40.51000, 16.82516
40.54000, 15.55811
40.57000, 14.41862
40.60000, 14.96669
40.63000, 15.28340
40.66000, 16.42186
40.69000, 16.55055
40.72000, 16.16071
40.75000, 12.81268
40.78000, 10.83215
40.81000, 11.61707
40.84000, 9.019104
40.87000, 8.081345
40.90000, 7.356339
40.93000, 7.244583
40.96000, 7.947998
40.99000, 11.79948
41.02000, 11.97498
41.05000, 10.62843
41.08000, 8.607330
41.11000, 8.445343
41.14000, 7.363907
41.17000, 7.927780
41.20000, 8.473755
41.23000, 7.671829
41.26000, 8.259308
41.29000, 7.434662
41.32000, 8.394516
41.35000, 9.707825
41.38000, 10.42892
41.41000, 11.55022
41.44000, 15.41772
41.47000, 16.81845
41.50000, 17.18024
41.53000, 19.16576
41.56000, 16.33386
41.59000, 13.98924
41.62000, 17.07504
41.65000, 19.03522
41.68000, 21.43800
41.71000, 22.86736
41.74000, 20.93103
41.77000, 17.46939
41.80000, 16.76355
41.83000, 16.16072
41.86000, 15.52122
41.89000, 13.64600
41.92000, 12.80782
41.95000, 6.731995
41.98000, 9.317673
42.01000, 5.945450
42.04000, 2.270523
42.07000, 7.914505
42.10000, 9.849426
42.13000, 11.70230
42.16000, 12.64058
42.19000, 12.34067
42.22000, 8.571899
42.25000, 9.663467
42.28000, 4.590088
42.31000, 1.239716
42.34000, 0.9383390
42.37000, 0.4828030
42.40000, 0.8048400
42.43000, 1.631546
42.46000, 2.482330
42.49000, 4.578247
42.52000, 6.320236
42.55000, 1.208389
42.58000, 7.576309
42.61000, 11.65656
42.64000, 12.78934
42.67000, 14.18324
42.70000, 14.42441
42.73000, 11.19890
42.76000, 9.104279
42.79000, 10.34456
42.82000, 10.77321
42.85000, 9.660080
42.88000, 8.423691
42.91000, 8.622498
42.94000, 8.230637
42.97000, 8.849991
43.00000, 11.50217
43.03000, 10.70790
43.06000, 11.69763
43.09000, 12.61688
43.12000, 12.87854
43.15000, 9.728638
43.18000, 9.972412
43.21000, 10.67993
43.24000, 11.55130
43.27000, 15.99257
43.30000, 21.45695
43.33000, 19.14418
43.36000, 16.57779
43.39000, 22.89433
43.42000, 26.84216
43.45000, 22.72050
43.48000, 17.17303
43.51000, 17.86887
43.54000, 16.26474
43.57000, 15.34100
43.60000, 14.62830
43.63000, 13.70549
43.66000, 14.73590
43.69000, 12.52673
43.72000, 11.71815
43.75000, 11.33455
43.78000, 14.86115
43.81000, 16.17087
43.84000, 14.83621
43.87000, 12.32393
43.90000, 7.691666
43.93000, 5.146011
43.96000, 5.207184
43.99000, 7.080658
44.02000, 11.07150
44.05000, 16.05119
44.08000, 19.19386
44.11000, 21.24126
44.14000, 22.22177
44.17000, 19.05803
44.20000, 13.63861
44.23000, 3.242096
44.26000, 1.277054
44.29000, 6.040878
44.32000, 12.19905
44.35000, 13.09239
44.38000, 8.678162
44.41000, 6.629288
44.44000, 5.895523
44.47000, 7.152222
44.50000, 8.976563
44.53000, 14.77557
44.56000, 16.03522
44.59000, 15.71178
44.62000, 15.45705
44.65000, 14.29175
44.68000, 12.24388
44.71000, 10.35422
44.74000, 7.316284
44.77000, 3.386108
44.80000, 2.4506001E-02
44.83000, 1.082886
44.86000, 1.767776
44.89000, 1.491302
44.92000, 3.431000
44.95000, 5.799118
44.98000, 8.060898
45.01000, 11.24919
45.04000, 15.03021
45.07000, 14.83739
45.10000, 11.78471
45.13000, 7.439407
45.16000, 3.378586
45.19000, 1.967606
45.22000, 1.8300000E-04
45.25000, 3.688004
45.28000, 8.259720
45.31000, 4.580429
45.34000, 0.0000000E+00
##END=



