##NAMES=Dundasite
##RRUFFID=R060760
##IDEAL CHEMISTRY=Pb^2+^Al_2_(CO_3_)_2_(OH)_4_&#183;H_2_O
##LOCALITY=Daoping mine, Guangxi, China
##OWNER=RRUFF
##SOURCE=Michael Scott
##DESCRIPTION=Spherical aggregates of pale green acicular crystals, associated with colorless cerussite, anglesite, and blue linarite R120094.
##DIFFRACTION SAMPLE DESCRIPTION=Powder, using Mo radiation
##STATUS=The identification of this mineral has been made only by X-ray diffraction.
##URL=rruff.info/R060760
##CELL PARAMETERS=a: 9.084(7) b: 16.504(8) c: 5.727(5) alpha: 90 beta: 90 gamma: 90 volume: 858.6(7) crystal system: orthorhombic
8.470000, 0.0000000E+00
8.500000, 0.4089360
8.530000, 1.218384
8.560000, 7.160553
8.590000, 17.52060
8.620000, 39.00650
8.650000, 63.46286
8.680000, 84.56503
8.710000, 111.0469
8.740000, 140.5751
8.770000, 164.3080
8.800000, 188.9658
8.830000, 202.6423
8.860000, 208.4305
8.890000, 211.4044
8.920000, 203.1645
8.950000, 181.7878
8.980000, 163.6336
9.010000, 136.6746
9.040000, 105.8309
9.070000, 81.32822
9.100000, 64.91470
9.130000, 52.98880
9.160000, 44.03397
9.190000, 40.91553
9.220000, 43.68683
9.250000, 47.32935
9.280000, 50.89127
9.310000, 52.24838
9.340000, 49.95071
9.370000, 49.02158
9.400000, 55.31711
9.430000, 71.22641
9.460000, 88.13638
9.490000, 106.9271
9.520000, 132.5660
9.550000, 160.1405
9.580000, 184.3233
9.610000, 203.0114
9.640000, 213.1194
9.670000, 214.4817
9.700000, 194.9501
9.730000, 164.0379
9.760000, 128.5244
9.790000, 96.77435
9.820000, 66.27866
9.850000, 44.86292
9.880000, 29.33374
9.910000, 16.55191
9.940000, 9.273956
9.970000, 0.1661680
10.00000, 4.465057
10.03000, 8.199738
10.06000, 9.937866
10.09000, 9.624664
10.12000, 10.17529
10.15000, 5.202301
10.18000, 0.7976990
10.21000, 3.111145
10.24000, 3.126343
10.27000, 2.848572
10.30000, 11.37729
10.33000, 22.92856
10.36000, 28.41190
10.39000, 30.74637
10.42000, 33.25287
10.45000, 36.33832
10.48000, 39.63724
10.51000, 43.78076
10.54000, 47.98691
10.57000, 53.30457
10.60000, 58.42218
10.63000, 64.14169
10.66000, 71.64001
10.69000, 77.20459
10.72000, 73.29599
10.75000, 68.14954
10.78000, 60.92728
10.81000, 52.09729
10.84000, 38.99762
10.87000, 25.23044
10.90000, 16.22177
10.93000, 9.599640
10.96000, 3.962158
10.99000, 2.539276
11.02000, 6.327942
11.05000, 18.95258
11.08000, 36.78763
11.11000, 65.34814
11.14000, 103.3223
11.17000, 142.9266
11.20000, 183.0301
11.23000, 225.5107
11.26000, 266.1127
11.29000, 301.3369
11.32000, 317.9844
11.35000, 317.6803
11.38000, 299.2870
11.41000, 264.9076
11.44000, 224.5184
11.47000, 180.7997
11.50000, 142.7895
11.53000, 116.3650
11.56000, 99.27704
11.59000, 90.91058
11.62000, 88.70554
11.65000, 84.91891
11.68000, 81.18954
11.71000, 76.89005
11.74000, 68.12802
11.77000, 58.58347
11.80000, 48.06839
11.83000, 33.32785
11.86000, 22.60178
11.89000, 15.68124
11.92000, 13.49017
11.95000, 18.74860
11.98000, 32.02145
12.01000, 60.89877
12.04000, 77.36343
12.07000, 105.6936
12.10000, 139.6114
12.13000, 174.2723
12.16000, 230.4961
12.19000, 271.5351
12.22000, 305.0439
12.25000, 316.2083
12.28000, 310.4967
12.31000, 308.6562
12.34000, 294.1432
12.37000, 273.9669
12.40000, 263.9765
12.43000, 241.1945
12.46000, 242.9454
12.49000, 248.8300
12.52000, 266.3088
12.55000, 282.6551
12.58000, 292.8847
12.61000, 296.8280
12.64000, 293.2988
12.67000, 287.0713
12.70000, 277.7852
12.73000, 258.6747
12.76000, 237.7899
12.79000, 207.9804
12.82000, 175.8530
12.85000, 144.0788
12.88000, 112.2562
12.91000, 88.70480
12.94000, 69.83771
12.97000, 53.81390
13.00000, 44.97522
13.03000, 42.34854
13.06000, 47.44174
13.09000, 52.19669
13.12000, 58.30136
13.15000, 66.21075
13.18000, 69.77859
13.21000, 71.01892
13.24000, 78.39764
13.27000, 84.80676
13.30000, 88.38516
13.33000, 95.85876
13.36000, 101.5515
13.39000, 117.4425
13.42000, 140.2016
13.45000, 161.2047
13.48000, 188.3865
13.51000, 215.3698
13.54000, 253.0299
13.57000, 273.7508
13.60000, 285.1753
13.63000, 284.9299
13.66000, 274.4203
13.69000, 253.7996
13.72000, 225.5635
13.75000, 187.9995
13.78000, 159.7131
13.81000, 121.8540
13.84000, 94.68799
13.87000, 71.33514
13.90000, 50.36551
13.93000, 33.05414
13.96000, 19.84601
13.99000, 11.53702
14.02000, 3.246338
14.05000, 3.927368
14.08000, 9.231720
14.11000, 14.02777
14.14000, 16.57291
14.17000, 18.22064
14.20000, 18.37149
14.23000, 19.10236
14.26000, 16.65060
14.29000, 9.875427
14.32000, 4.846954
14.35000, 2.601929
14.38000, 2.501282
14.41000, 9.067383
14.44000, 16.19632
14.47000, 24.17020
14.50000, 32.41422
14.53000, 37.24091
14.56000, 39.93478
14.59000, 41.00690
14.62000, 44.20612
14.65000, 53.50757
14.68000, 60.42419
14.71000, 62.89612
14.74000, 67.35336
14.77000, 73.16785
14.80000, 75.55078
14.83000, 76.80780
14.86000, 81.79846
14.89000, 85.08340
14.92000, 90.77185
14.95000, 100.9722
14.98000, 114.6742
15.01000, 131.9179
15.04000, 149.8942
15.07000, 170.3590
15.10000, 196.0759
15.13000, 221.5729
15.16000, 247.5297
15.19000, 271.4211
15.22000, 291.9044
15.25000, 303.4882
15.28000, 308.5828
15.31000, 313.8341
15.34000, 314.6029
15.37000, 307.7374
15.40000, 290.3307
15.43000, 270.1935
15.46000, 246.9990
15.49000, 220.4510
15.52000, 196.4267
15.55000, 169.0790
15.58000, 140.6790
15.61000, 117.2015
15.64000, 95.51657
15.67000, 76.90982
15.70000, 63.09500
15.73000, 50.93787
15.76000, 39.45840
15.79000, 30.25739
15.82000, 24.26874
15.85000, 18.41547
15.88000, 11.72345
15.91000, 7.267670
15.94000, 3.132050
15.97000, 3.703278
16.00000, 11.00537
16.03000, 18.05756
16.06000, 27.69589
16.09000, 37.94824
16.12000, 45.89072
16.15000, 53.95325
16.18000, 61.29584
16.21000, 64.64243
16.24000, 62.94806
16.27000, 58.05576
16.30000, 57.92941
16.33000, 55.59314
16.36000, 47.16385
16.39000, 41.29852
16.42000, 36.25021
16.45000, 32.78091
16.48000, 27.71173
16.51000, 24.37369
16.54000, 21.90381
16.57000, 17.78201
16.60000, 13.83630
16.63000, 13.69977
16.66000, 11.76825
16.69000, 16.36285
16.72000, 13.98853
16.75000, 15.70526
16.78000, 22.62299
16.81000, 31.44180
16.84000, 43.29663
16.87000, 59.68649
16.90000, 80.59338
16.93000, 102.7903
16.96000, 125.0062
16.99000, 143.7390
17.02000, 156.9709
17.05000, 164.1617
17.08000, 167.6016
17.11000, 168.1473
17.14000, 166.7712
17.17000, 161.6000
17.20000, 146.4565
17.23000, 130.3118
17.26000, 117.9669
17.29000, 106.5790
17.32000, 95.69885
17.35000, 80.86157
17.38000, 62.57648
17.41000, 49.45639
17.44000, 39.53467
17.47000, 30.99380
17.50000, 23.36285
17.53000, 19.66763
17.56000, 14.24088
17.59000, 17.02878
17.62000, 20.59573
17.65000, 23.50879
17.68000, 21.15793
17.71000, 21.19141
17.74000, 26.03586
17.77000, 33.26697
17.80000, 40.45337
17.83000, 48.68649
17.86000, 56.49002
17.89000, 60.49344
17.92000, 68.36572
17.95000, 76.25507
17.98000, 82.33582
18.01000, 83.26077
18.04000, 91.20755
18.07000, 90.51996
18.10000, 95.80026
18.13000, 84.10187
18.16000, 70.94257
18.19000, 53.57031
18.22000, 45.91321
18.25000, 30.76724
18.28000, 26.43842
18.31000, 19.66327
18.34000, 20.94962
18.37000, 21.29791
18.40000, 19.97330
18.43000, 19.38165
18.46000, 21.63120
18.49000, 24.72513
18.52000, 28.65820
18.55000, 34.76849
18.58000, 37.31772
18.61000, 43.39462
18.64000, 44.11990
18.67000, 45.65268
18.70000, 48.87802
18.73000, 53.64966
18.76000, 58.45425
18.79000, 59.49387
18.82000, 65.92380
18.85000, 67.74707
18.88000, 72.25943
18.91000, 77.50082
18.94000, 81.35126
18.97000, 74.88260
19.00000, 71.39096
19.03000, 70.50732
19.06000, 65.35162
19.09000, 56.27182
19.12000, 49.31100
19.15000, 39.74216
19.18000, 33.26022
19.21000, 26.36526
19.24000, 23.34518
19.27000, 22.02505
19.30000, 17.46481
19.33000, 19.41550
19.36000, 26.33704
19.39000, 34.84949
19.42000, 44.76080
19.45000, 52.24805
19.48000, 61.96313
19.51000, 78.82013
19.54000, 105.7075
19.57000, 137.2776
19.60000, 168.3732
19.63000, 202.4567
19.66000, 244.3250
19.69000, 285.0321
19.72000, 315.6641
19.75000, 343.9002
19.78000, 370.8997
19.81000, 384.9502
19.84000, 400.2357
19.87000, 411.5078
19.90000, 416.4259
19.93000, 410.9818
19.96000, 393.1045
19.99000, 374.7080
20.02000, 355.8564
20.05000, 338.5885
20.08000, 311.9855
20.11000, 292.4724
20.14000, 272.8189
20.17000, 254.5732
20.20000, 235.9935
20.23000, 207.4434
20.26000, 173.9093
20.29000, 145.0778
20.32000, 117.0962
20.35000, 95.37430
20.38000, 78.45020
20.41000, 64.16791
20.44000, 50.61435
20.47000, 41.60059
20.50000, 37.68958
20.53000, 40.52332
20.56000, 41.71085
20.59000, 43.50607
20.62000, 49.96210
20.65000, 59.64584
20.68000, 69.97635
20.71000, 76.91461
20.74000, 82.32962
20.77000, 83.98639
20.80000, 82.89682
20.83000, 80.83801
20.86000, 78.27298
20.89000, 74.99695
20.92000, 70.06860
20.95000, 61.54370
20.98000, 48.14371
21.01000, 39.34531
21.04000, 37.35226
21.07000, 34.59869
21.10000, 30.45029
21.13000, 22.48734
21.16000, 15.11789
21.19000, 7.789185
21.22000, 2.922455
21.25000, 0.1901250
21.28000, 0.7198490
21.31000, 0.2578130
21.34000, 0.2912900
21.37000, 9.1063999E-02
21.40000, 0.2669070
21.43000, 0.2254330
21.46000, 0.6619870
21.49000, 0.2437440
21.52000, 0.6687620
21.55000, 2.186157
21.58000, 1.022614
21.61000, 1.336975
21.64000, 1.901459
21.67000, 0.1173400
21.70000, 2.225311
21.73000, 4.921173
21.76000, 9.016541
21.79000, 10.73727
21.82000, 9.330475
21.85000, 8.534088
21.88000, 4.114136
21.91000, 4.297546
21.94000, 1.434418
21.97000, 1.592712
22.00000, 1.891144
22.03000, 1.428162
22.06000, 4.522491
22.09000, 8.139832
22.12000, 8.253998
22.15000, 6.940094
22.18000, 6.831482
22.21000, 4.732239
22.24000, 3.155701
22.27000, 0.5523680
22.30000, 3.480103
22.33000, 7.951202
22.36000, 12.95370
22.39000, 18.38879
22.42000, 28.81705
22.45000, 33.50116
22.48000, 33.32031
22.51000, 33.94293
22.54000, 34.67499
22.57000, 46.92139
22.60000, 71.18121
22.63000, 77.16345
22.66000, 83.22113
22.69000, 96.29120
22.72000, 101.7117
22.75000, 106.4526
22.78000, 116.6279
22.81000, 119.4406
22.84000, 125.4948
22.87000, 127.3694
22.90000, 122.3444
22.93000, 120.7768
22.96000, 110.8946
22.99000, 107.4399
23.02000, 103.4445
23.05000, 103.6836
23.08000, 107.6181
23.11000, 110.0281
23.14000, 113.1426
23.17000, 116.5807
23.20000, 118.1882
23.23000, 118.9902
23.26000, 123.7256
23.29000, 128.7504
23.32000, 134.6687
23.35000, 139.6404
23.38000, 142.6436
23.41000, 145.3287
23.44000, 145.3941
23.47000, 146.2816
23.50000, 144.4395
23.53000, 140.8968
23.56000, 140.6116
23.59000, 142.7708
23.62000, 136.2116
23.65000, 120.8637
23.68000, 102.8123
23.71000, 83.45837
23.74000, 66.11191
23.77000, 55.48190
23.80000, 49.15033
23.83000, 48.32724
23.86000, 50.28262
23.89000, 54.15347
23.92000, 60.34882
23.95000, 63.31561
23.98000, 63.52289
24.01000, 63.23065
24.04000, 64.56595
24.07000, 68.00464
24.10000, 73.52689
24.13000, 75.49765
24.16000, 73.25885
24.19000, 74.41458
24.22000, 66.74899
24.25000, 60.48941
24.28000, 50.22873
24.31000, 43.07547
24.34000, 35.95273
24.37000, 30.10349
24.40000, 18.45279
24.43000, 5.760590
24.46000, 1.222076
24.49000, 9.020874
24.52000, 10.41486
24.55000, 9.811707
24.58000, 7.136139
24.61000, 1.860748
24.64000, 3.054230
24.67000, 5.887787
24.70000, 5.930908
24.73000, 6.198547
24.76000, 9.212677
24.79000, 15.78769
24.82000, 21.23602
24.85000, 24.74893
24.88000, 24.76181
24.91000, 23.67560
24.94000, 20.03699
24.97000, 17.95145
25.00000, 17.90640
25.03000, 16.17233
25.06000, 18.84750
25.09000, 16.02924
25.12000, 16.32526
25.15000, 17.74704
25.18000, 24.38596
25.21000, 31.05127
25.24000, 36.56027
25.27000, 43.10358
25.30000, 50.67178
25.33000, 55.63367
25.36000, 60.07620
25.39000, 58.17633
25.42000, 56.32208
25.45000, 55.45755
25.48000, 54.98294
25.51000, 51.78653
25.54000, 48.42203
25.57000, 47.42416
25.60000, 42.58609
25.63000, 38.75662
25.66000, 35.44058
25.69000, 33.20428
25.72000, 32.45883
25.75000, 28.49005
25.78000, 22.72647
25.81000, 18.48093
25.84000, 12.19522
25.87000, 5.196411
25.90000, 1.817657
25.93000, 1.438263
25.96000, 1.626068
25.99000, 2.060974
26.02000, 0.9604800
26.05000, 0.8097230
26.08000, 4.336975
26.11000, 8.064301
26.14000, 7.836639
26.17000, 8.418091
26.20000, 6.548615
26.23000, 6.791229
26.26000, 9.913910
26.29000, 11.58566
26.32000, 12.64355
26.35000, 12.71753
26.38000, 12.41064
26.41000, 12.41586
26.44000, 11.18246
26.47000, 7.765656
26.50000, 8.733215
26.53000, 6.973969
26.56000, 6.303894
26.59000, 6.091919
26.62000, 5.893127
26.65000, 11.55850
26.68000, 16.18701
26.71000, 20.64276
26.74000, 25.43265
26.77000, 31.35776
26.80000, 36.07303
26.83000, 39.06055
26.86000, 39.51324
26.89000, 39.73517
26.92000, 43.62830
26.95000, 45.33569
26.98000, 44.89029
27.01000, 41.87909
27.04000, 35.38919
27.07000, 29.10150
27.10000, 27.60410
27.13000, 22.03094
27.16000, 17.11804
27.19000, 19.76443
27.22000, 23.23712
27.25000, 23.86407
27.28000, 23.74133
27.31000, 24.01889
27.34000, 25.95273
27.37000, 32.47192
27.40000, 37.43939
27.43000, 40.92618
27.46000, 46.28232
27.49000, 52.08276
27.52000, 54.33957
27.55000, 52.59473
27.58000, 52.34125
27.61000, 48.71609
27.64000, 40.95731
27.67000, 33.74384
27.70000, 31.90686
27.73000, 27.15018
27.76000, 26.54788
27.79000, 27.11002
27.82000, 21.87851
27.85000, 16.80942
27.88000, 16.88074
27.91000, 14.93045
27.94000, 13.83060
27.97000, 15.52118
28.00000, 14.37518
28.03000, 12.32281
28.06000, 13.50354
28.09000, 14.33164
28.12000, 16.02740
28.15000, 13.96237
28.18000, 9.057861
28.21000, 6.836304
28.24000, 6.305786
28.27000, 3.034851
28.30000, 6.6220001E-03
28.33000, 2.431915
28.36000, 3.316254
28.39000, 0.3385310
28.42000, 5.993805
28.45000, 11.49716
28.48000, 17.75339
28.51000, 29.17276
28.54000, 37.96207
28.57000, 43.45624
28.60000, 44.57678
28.63000, 41.17242
28.66000, 42.04834
28.69000, 40.87646
28.72000, 37.68393
28.75000, 36.02011
28.78000, 30.82565
28.81000, 26.90063
28.84000, 19.15445
28.87000, 17.27039
28.90000, 13.10620
28.93000, 9.186737
28.96000, 6.376984
28.99000, 4.699036
29.02000, 2.537811
29.05000, 1.893372
29.08000, 0.1582640
29.11000, 1.528809
29.14000, 0.9598390
29.17000, 1.325592
29.20000, 1.252075
29.23000, 2.913452
29.26000, 6.901154
29.29000, 10.27209
29.32000, 13.93079
29.35000, 17.29810
29.38000, 21.37296
29.41000, 24.33936
29.44000, 29.16351
29.47000, 32.95328
29.50000, 35.06122
29.53000, 34.65323
29.56000, 33.04285
29.59000, 33.38342
29.62000, 34.73035
29.65000, 33.76733
29.68000, 32.75507
29.71000, 34.64450
29.74000, 34.64474
29.77000, 35.53073
29.80000, 38.52545
29.83000, 39.92587
29.86000, 42.18411
29.89000, 49.40207
29.92000, 57.19376
29.95000, 67.44025
29.98000, 76.45044
30.01000, 77.35739
30.04000, 78.16711
30.07000, 72.71255
30.10000, 64.89883
30.13000, 61.43777
30.16000, 56.11649
30.19000, 50.27701
30.22000, 47.25027
30.25000, 46.17133
30.28000, 38.18216
30.31000, 27.63275
30.34000, 21.67609
30.37000, 22.08521
30.40000, 21.11911
30.43000, 18.33878
30.46000, 12.15317
30.49000, 10.14737
30.52000, 6.749329
30.55000, 8.455017
30.58000, 16.96155
30.61000, 20.16177
30.64000, 20.96381
30.67000, 20.43756
30.70000, 14.57309
30.73000, 8.441345
30.76000, 5.837402
30.79000, 4.068207
30.82000, 3.912781
30.85000, 6.979065
30.88000, 6.386139
30.91000, 4.298889
30.94000, 8.542480
30.97000, 14.81174
31.00000, 19.29681
31.03000, 18.62958
31.06000, 14.11612
31.09000, 8.959381
31.12000, 7.964386
31.15000, 10.31409
31.18000, 11.18658
31.21000, 12.67075
31.24000, 10.85767
31.27000, 10.25931
31.30000, 7.098663
31.33000, 4.664764
31.36000, 4.239563
31.39000, 4.277130
31.42000, 23.21130
31.45000, 11.64328
31.48000, 24.30597
31.51000, 2.156342
31.54000, 3.608398
31.57000, 4.394165
31.60000, 1.746368
31.63000, 0.3103330
31.66000, 1.731873
31.69000, 2.614044
31.72000, 2.689117
31.75000, 2.533905
31.78000, 3.504974
31.81000, 4.023987
31.84000, 5.567780
31.87000, 5.125916
31.90000, 6.848358
31.93000, 8.792419
31.96000, 8.692841
31.99000, 8.845367
32.02000, 9.257111
32.05000, 11.40747
32.08000, 19.95239
32.11000, 28.81601
32.14000, 34.99765
32.17000, 36.84525
32.20000, 40.02649
32.23000, 42.84625
32.26000, 44.32556
32.29000, 46.24344
32.32000, 47.70081
32.35000, 49.60770
32.38000, 47.47510
32.41000, 44.18799
32.44000, 39.40039
32.47000, 31.28424
32.50000, 21.97562
32.53000, 17.88049
32.56000, 14.43079
32.59000, 11.83249
32.62000, 9.041260
32.65000, 8.089386
32.68000, 4.684601
32.71000, 3.515167
32.74000, 1.423126
32.77000, 1.360565
32.80000, 0.1299740
32.83000, 1.657593
32.86000, 0.8320620
32.89000, 0.2251590
32.92000, 0.1302800
32.95000, 3.836548
32.98000, 5.654449
33.01000, 6.251678
33.04000, 5.452209
33.07000, 1.225220
33.10000, 3.394836
33.13000, 4.604004
33.16000, 6.535645
33.19000, 6.631775
33.22000, 6.008179
33.25000, 5.792725
33.28000, 4.745392
33.31000, 9.565186
33.34000, 11.90311
33.37000, 9.681183
33.40000, 8.542328
33.43000, 7.739563
33.46000, 4.824036
33.49000, 10.31992
33.52000, 14.06018
33.55000, 16.13919
33.58000, 11.58167
33.61000, 15.59433
33.64000, 16.17368
33.67000, 16.61276
33.70000, 14.55579
33.73000, 13.22763
33.76000, 13.09433
33.79000, 13.88217
33.82000, 16.34988
33.85000, 14.53363
33.88000, 15.60382
33.91000, 12.52585
33.94000, 8.625854
33.97000, 8.310913
34.00000, 6.502930
34.03000, 7.505096
34.06000, 7.873322
34.09000, 4.696503
34.12000, 3.116791
34.15000, 5.348053
34.18000, 6.163269
34.21000, 4.444489
34.24000, 5.548676
34.27000, 6.591797
34.30000, 9.000916
34.33000, 13.04599
34.36000, 16.94199
34.39000, 19.46896
34.42000, 22.70193
34.45000, 24.30377
34.48000, 24.06052
34.51000, 24.75128
34.54000, 27.18591
34.57000, 30.58347
34.60000, 29.56995
34.63000, 28.35431
34.66000, 32.24158
34.69000, 33.17776
34.72000, 29.62982
34.75000, 29.10876
34.78000, 28.18457
34.81000, 27.04126
34.84000, 27.85977
34.87000, 26.84433
34.90000, 27.36652
34.93000, 25.35965
34.96000, 23.87561
34.99000, 21.34039
35.02000, 17.96906
35.05000, 12.38455
35.08000, 6.790833
35.11000, 5.474884
35.14000, 4.647888
35.17000, 0.4366150
35.20000, 2.529297
35.23000, 2.028442
35.26000, 2.229462
35.29000, 5.076111
35.32000, 2.717560
35.35000, 1.386688
35.38000, 0.2365720
35.41000, 0.6910400
35.44000, 1.955078
35.47000, 1.447876
35.50000, 3.503174
35.53000, 9.029419
35.56000, 9.099670
35.59000, 8.728607
35.62000, 7.365234
35.65000, 5.867493
35.68000, 2.478455
35.71000, 1.122925
35.74000, 0.4668270
35.77000, 2.987640
35.80000, 6.197052
35.83000, 10.17517
35.86000, 11.84088
35.89000, 15.12119
35.92000, 15.32117
35.95000, 12.16779
35.98000, 11.28500
36.01000, 13.35184
36.04000, 14.19427
36.07000, 18.16638
36.10000, 19.58603
36.13000, 18.69827
36.16000, 17.43613
36.19000, 14.01855
36.22000, 10.11862
36.25000, 10.66327
36.28000, 8.751465
36.31000, 11.04825
36.34000, 13.05164
36.37000, 8.360565
36.40000, 2.215912
36.43000, 2.113190
36.46000, 3.744598
36.49000, 4.208252
36.52000, 6.360596
36.55000, 4.821320
36.58000, 2.088440
36.61000, 6.0973998E-02
36.64000, 1.974976
36.67000, 4.239227
36.70000, 5.289734
36.73000, 9.087891
36.76000, 11.21863
36.79000, 12.44302
36.82000, 15.65002
36.85000, 21.34164
36.88000, 26.91086
36.91000, 29.98773
36.94000, 31.67422
36.97000, 33.57129
37.00000, 31.26196
37.03000, 28.88028
37.06000, 28.23822
37.09000, 27.36771
37.12000, 27.62881
37.15000, 29.76202
37.18000, 31.80020
37.21000, 31.53583
37.24000, 29.46622
37.27000, 27.84308
37.30000, 26.29587
37.33000, 23.32648
37.36000, 18.67136
37.39000, 19.09924
37.42000, 18.49789
37.45000, 19.38541
37.48000, 20.85938
37.51000, 22.57092
37.54000, 23.57996
37.57000, 21.01752
37.60000, 18.46729
37.63000, 20.00894
37.66000, 22.15802
37.69000, 26.89035
37.72000, 29.10245
37.75000, 27.33603
37.78000, 28.33115
37.81000, 29.19873
37.84000, 30.10052
37.87000, 31.07959
37.90000, 31.19275
37.93000, 29.01089
37.96000, 27.63654
37.99000, 28.81665
38.02000, 30.03326
38.05000, 29.57938
38.08000, 26.38696
38.11000, 25.13358
38.14000, 22.11884
38.17000, 18.54669
38.20000, 15.48825
38.23000, 10.60330
38.26000, 6.596771
38.29000, 8.025787
38.32000, 9.207245
38.35000, 9.521210
38.38000, 12.72562
38.41000, 12.91656
38.44000, 14.66498
38.47000, 19.97183
38.50000, 25.86319
38.53000, 30.57098
38.56000, 30.67435
38.59000, 26.74612
38.62000, 25.10538
38.65000, 26.73611
38.68000, 26.37540
38.71000, 27.99905
38.74000, 28.81723
38.77000, 30.20316
38.80000, 29.76053
38.83000, 29.31027
38.86000, 29.31345
38.89000, 30.40131
38.92000, 36.05328
38.95000, 33.75284
38.98000, 35.31622
39.01000, 38.36221
39.04000, 37.52994
39.07000, 36.78558
39.10000, 36.65887
39.13000, 39.33667
39.16000, 38.87064
39.19000, 39.74451
39.22000, 40.31915
39.25000, 40.67810
39.28000, 41.34348
39.31000, 41.87994
39.34000, 40.88184
39.37000, 42.03058
39.40000, 38.32217
39.43000, 38.40533
39.46000, 36.09805
39.49000, 31.34631
39.52000, 24.75516
39.55000, 20.98950
39.58000, 21.34341
39.61000, 20.21896
39.64000, 18.91202
39.67000, 17.94864
39.70000, 15.98679
39.73000, 17.23154
39.76000, 13.69983
39.79000, 10.65170
39.82000, 9.487152
39.85000, 12.53018
39.88000, 14.91422
39.91000, 20.04099
39.94000, 23.01144
39.97000, 17.76373
40.00000, 12.14047
40.03000, 10.75528
40.06000, 8.229431
40.09000, 10.67929
40.12000, 8.960266
40.15000, 13.99902
40.18000, 19.42175
40.21000, 14.40820
40.24000, 14.29471
40.27000, 12.73184
40.30000, 9.274628
40.33000, 11.80618
40.36000, 12.42642
40.39000, 12.01639
40.42000, 9.034058
40.45000, 8.464478
40.48000, 6.729584
40.51000, 5.785461
40.54000, 6.144348
40.57000, 3.019348
40.60000, 6.171387
40.63000, 6.903076
40.66000, 4.729584
40.69000, 3.852814
40.72000, 1.129730
40.75000, 0.8834530
40.78000, 4.115753
40.81000, 0.6864620
40.84000, 1.418732
40.87000, 4.407959
40.90000, 2.092285
40.93000, 0.6776120
40.96000, 2.425995
40.99000, 0.1894530
41.02000, 4.566315
41.05000, 6.106842
41.08000, 6.825165
41.11000, 6.218231
41.14000, 3.682983
41.17000, 0.6950070
41.20000, 1.194092
41.23000, 1.803772
41.26000, 0.8911740
41.29000, 3.971130
41.32000, 6.316833
41.35000, 7.048309
41.38000, 6.962524
41.41000, 8.755859
41.44000, 10.21320
41.47000, 11.56970
41.50000, 7.402802
41.53000, 14.26910
41.56000, 18.52188
41.59000, 20.29691
41.62000, 12.62888
41.65000, 16.80804
41.68000, 16.02753
41.71000, 14.89871
41.74000, 20.31268
41.77000, 13.24011
41.80000, 18.24554
41.83000, 18.21796
41.86000, 20.27347
41.89000, 17.33969
41.92000, 15.74899
41.95000, 18.84662
41.98000, 19.11331
42.01000, 15.01770
42.04000, 16.30771
42.07000, 12.94022
42.10000, 14.35138
42.13000, 14.49533
42.16000, 12.88510
42.19000, 10.00259
42.22000, 8.827850
42.25000, 7.531921
42.28000, 7.780731
42.31000, 9.200409
42.34000, 8.678833
42.37000, 6.563263
42.40000, 6.023499
42.43000, 4.120422
42.46000, 5.448151
42.49000, 9.991669
42.52000, 12.97101
42.55000, 12.74417
42.58000, 11.94867
42.61000, 14.25351
42.64000, 12.97720
42.67000, 12.78775
42.70000, 15.74420
42.73000, 16.00842
42.76000, 17.25845
42.79000, 18.62933
42.82000, 17.51614
42.85000, 14.03003
42.88000, 11.85791
42.91000, 12.31546
42.94000, 18.39233
42.97000, 21.76804
43.00000, 28.22858
43.03000, 30.24298
43.06000, 32.98633
43.09000, 34.29147
43.12000, 30.23547
43.15000, 28.10236
43.18000, 26.62216
43.21000, 21.90875
43.24000, 18.09329
43.27000, 16.56668
43.30000, 13.96091
43.33000, 13.49515
43.36000, 17.40717
43.39000, 19.38010
43.42000, 18.10986
43.45000, 18.10495
43.48000, 17.95557
43.51000, 17.43784
43.54000, 19.46692
43.57000, 18.94797
43.60000, 16.82916
43.63000, 15.19321
43.66000, 16.27267
43.69000, 16.45865
43.72000, 15.35068
43.75000, 16.78732
43.78000, 18.58890
43.81000, 24.06866
43.84000, 24.29840
43.87000, 22.04388
43.90000, 21.27426
43.93000, 16.54044
43.96000, 9.944458
43.99000, 12.62927
44.02000, 15.16595
44.05000, 14.94650
44.08000, 25.83484
44.11000, 17.84830
44.14000, 31.12805
44.17000, 7.939911
44.20000, 9.145660
44.23000, 8.308197
44.26000, 3.695587
44.29000, 4.006836
44.32000, 1.180481
44.35000, 1.156494
44.38000, 1.384003
44.41000, 0.6495970
44.44000, 3.653137
44.47000, 5.625244
44.50000, 8.054901
44.53000, 7.144775
44.56000, 6.396088
44.59000, 4.850067
44.62000, 3.566650
44.65000, 3.240234
44.68000, 2.075745
44.71000, 1.505127
44.74000, 0.1885070
44.77000, 3.282043
44.80000, 5.562073
44.83000, 3.358246
44.86000, 1.583618
44.89000, 2.750641
44.92000, 3.011627
44.95000, 1.732544
44.98000, 2.490509
45.01000, 2.434143
45.04000, 1.968231
45.07000, 1.427612
45.10000, 0.2360530
45.13000, 0.6414180
45.16000, 1.868195
45.19000, 2.004730
45.22000, 3.689240
45.25000, 3.808655
45.28000, 3.848602
45.31000, 5.803650
45.34000, 4.454163
45.37000, 5.413544
45.40000, 8.103973
45.43000, 7.821411
45.46000, 5.658813
45.49000, 2.305176
45.52000, 1.931610
45.55000, 4.172028
45.58000, 3.264465
45.61000, 4.585846
45.64000, 5.716278
45.67000, 8.385712
45.70000, 14.79617
45.73000, 21.13663
45.76000, 19.25208
45.79000, 17.47360
45.82000, 13.27905
45.85000, 12.77658
45.88000, 11.68207
45.91000, 10.94861
45.94000, 11.66418
45.97000, 14.79276
46.00000, 16.79166
46.03000, 19.14319
46.06000, 20.75476
46.09000, 24.37234
46.12000, 26.87500
46.15000, 26.02066
46.18000, 19.52435
46.21000, 16.08704
46.24000, 11.69980
46.27000, 5.548492
46.30000, 6.226288
46.33000, 7.132050
46.36000, 12.11691
46.39000, 17.03799
46.42000, 18.18311
46.45000, 16.20090
46.48000, 15.24142
46.51000, 18.49533
46.54000, 22.39639
46.57000, 20.96512
46.60000, 17.38086
46.63000, 19.57068
46.66000, 17.08353
46.69000, 15.05334
46.72000, 13.81525
46.75000, 8.634186
46.78000, 6.522125
46.81000, 7.793182
46.84000, 7.436249
46.87000, 7.679352
46.90000, 8.997437
46.93000, 7.906677
46.96000, 5.726898
46.99000, 3.121185
47.02000, 1.592468
47.05000, 4.234039
47.08000, 4.218842
47.11000, 4.523926
47.14000, 3.288940
47.17000, 0.4105830
47.20000, 2.137024
47.23000, 5.952576
47.26000, 11.18726
47.29000, 9.744965
47.32000, 5.067688
47.35000, 7.104492
47.38000, 10.40427
47.41000, 11.82611
47.44000, 12.43503
47.47000, 10.79999
47.50000, 12.34799
47.53000, 22.73602
47.56000, 25.08606
47.59000, 21.12515
47.62000, 24.17831
47.65000, 23.56952
47.68000, 17.79074
47.71000, 17.05200
47.74000, 16.56631
47.77000, 16.52570
47.80000, 15.50113
47.83000, 14.85156
47.86000, 14.39319
47.89000, 17.15985
47.92000, 19.99866
47.95000, 24.33975
47.98000, 22.10001
48.01000, 17.04724
48.04000, 18.27469
48.07000, 13.29056
48.10000, 10.02130
48.13000, 13.85828
48.16000, 16.09113
48.19000, 15.83224
48.22000, 16.43045
48.25000, 20.55075
48.28000, 20.53015
48.31000, 21.33261
48.34000, 19.99762
48.37000, 18.99542
48.40000, 18.30893
48.43000, 12.60736
48.46000, 15.02554
48.49000, 13.03784
48.52000, 9.416260
48.55000, 13.69775
48.58000, 9.728027
48.61000, 9.602142
48.64000, 11.85291
48.67000, 17.32309
48.70000, 21.93597
48.73000, 23.42880
48.76000, 21.72815
48.79000, 17.48871
48.82000, 14.85840
48.85000, 14.05023
48.88000, 13.73013
48.91000, 16.29944
48.94000, 16.66187
48.97000, 20.61346
49.00000, 22.46121
49.03000, 18.96515
49.06000, 16.12921
49.09000, 19.55344
49.12000, 20.77881
49.15000, 20.75140
49.18000, 18.44907
49.21000, 18.70200
49.24000, 21.04803
49.27000, 20.66321
49.30000, 20.89163
49.33000, 22.67514
49.36000, 22.37787
49.39000, 23.56158
49.42000, 19.01978
49.45000, 23.40399
49.48000, 19.79034
49.51000, 15.32892
49.54000, 15.29462
49.57000, 15.92407
49.60000, 13.55069
49.63000, 13.56592
49.66000, 10.82935
49.69000, 11.41388
49.72000, 10.01660
49.75000, 8.884491
49.78000, 8.542542
49.81000, 4.991791
49.84000, 7.105194
49.87000, 8.633728
49.90000, 9.429504
49.93000, 4.572418
49.96000, 0.6375120
49.99000, 1.173492
50.02000, 0.7867430
50.05000, 0.6691280
50.08000, 0.5843510
50.11000, 1.235748
50.14000, 1.032318
50.17000, 4.803619
50.20000, 9.875061
50.23000, 14.88364
50.26000, 17.35138
50.29000, 20.76123
50.32000, 19.57825
50.35000, 20.50839
50.38000, 17.54861
50.41000, 12.82101
50.44000, 12.52957
50.47000, 11.04422
50.50000, 15.56305
50.53000, 22.31403
50.56000, 25.96811
50.59000, 24.11536
50.62000, 19.91937
50.65000, 19.96686
50.68000, 21.36823
50.71000, 19.23792
50.74000, 21.76767
50.77000, 25.00748
50.80000, 28.23755
50.83000, 25.47684
50.86000, 23.39838
50.89000, 18.70316
50.92000, 14.38611
50.95000, 12.99066
50.98000, 8.594696
51.01000, 11.00235
51.04000, 9.486450
51.07000, 11.57257
51.10000, 9.624939
51.13000, 5.460510
51.16000, 5.974304
51.19000, 10.95932
51.22000, 15.67661
51.25000, 13.47806
51.28000, 8.497803
51.31000, 7.224731
51.34000, 6.688965
51.37000, 6.717407
51.40000, 8.603058
51.43000, 7.084137
51.46000, 5.674225
51.49000, 8.102631
51.52000, 9.970276
51.55000, 3.987701
51.58000, 7.460968
51.61000, 12.74149
51.64000, 7.035248
51.67000, 5.734253
51.70000, 11.32745
51.73000, 6.273926
51.76000, 0.5415650
51.79000, 0.2054140
51.82000, 4.133484
51.85000, 3.368805
51.88000, 2.201355
51.91000, 3.854065
51.94000, 6.307098
51.97000, 4.503326
52.00000, 5.414764
52.03000, 3.971436
52.06000, 1.367310
52.09000, 3.449432
52.12000, 9.169800
52.15000, 10.64932
52.18000, 6.565857
52.21000, 5.562317
52.24000, 3.684662
52.27000, 0.6336980
52.30000, 0.1190190
52.33000, 2.493439
52.36000, 8.356140
52.39000, 15.19904
52.42000, 21.45123
52.45000, 21.59961
52.48000, 18.98889
52.51000, 17.77258
52.54000, 15.28851
52.57000, 12.83362
52.60000, 8.915009
52.63000, 8.594543
52.66000, 13.11209
52.69000, 11.84750
52.72000, 11.31427
52.75000, 11.56000
52.78000, 10.09662
52.81000, 14.52808
52.84000, 12.60641
52.87000, 12.02167
52.90000, 2.914124
52.93000, 1.770813
52.96000, 4.066681
52.99000, 8.404846
53.02000, 10.38715
53.05000, 5.963684
53.08000, 3.457458
53.11000, 4.537415
53.14000, 1.217407
53.17000, 2.758545
53.20000, 2.828247
53.23000, 5.683258
53.26000, 8.433441
53.29000, 4.872925
53.32000, 5.323608
53.35000, 6.191498
53.38000, 1.662598
53.41000, 3.915924
53.44000, 6.079498
53.47000, 3.798248
53.50000, 9.337280
53.53000, 8.184479
53.56000, 4.951752
53.59000, 3.179199
53.62000, 2.109192
53.65000, 4.333313
53.68000, 7.827423
53.71000, 2.513000
53.74000, 4.865417
53.77000, 4.020050
53.80000, 10.48489
53.83000, 8.218964
53.86000, 5.080200
53.89000, 8.668701
53.92000, 8.734375
53.95000, 5.371277
53.98000, 8.697388
54.01000, 10.26471
54.04000, 13.05927
54.07000, 18.89203
54.10000, 19.87103
54.13000, 19.82623
54.16000, 17.24896
54.19000, 11.11993
54.22000, 7.978760
54.25000, 0.7926330
54.28000, 1.091980
54.31000, 1.108734
54.34000, 0.7236020
54.37000, 4.698883
54.40000, 2.993195
54.43000, 5.190979
54.46000, 2.418823
54.49000, 1.875885
54.52000, 2.031158
54.55000, 0.1536870
54.58000, 0.7713320
54.61000, 3.1799000E-02
54.64000, 0.7951660
54.67000, 7.596344
54.70000, 13.98773
54.73000, 13.21930
54.76000, 11.17612
54.79000, 5.428101
54.82000, 9.348328
54.85000, 11.82275
54.88000, 4.377380
54.91000, 7.221222
54.94000, 4.816254
54.97000, 0.7535100
55.00000, 0.1459960
55.03000, 1.239502
55.06000, 1.557220
55.09000, 2.255157
55.12000, 4.726257
55.15000, 4.016510
55.18000, 8.416046
55.21000, 12.15878
55.24000, 12.24374
55.27000, 11.59586
55.30000, 11.23721
55.33000, 13.00568
55.36000, 15.04138
55.39000, 12.38727
55.42000, 9.323364
55.45000, 5.818634
55.48000, 8.622162
55.51000, 11.44586
55.54000, 8.936768
55.57000, 13.67285
55.60000, 15.47614
55.63000, 16.78162
55.66000, 20.54929
55.69000, 27.41656
55.72000, 29.04968
55.75000, 23.22797
55.78000, 16.69244
55.81000, 15.25107
55.84000, 14.03693
55.87000, 11.40799
55.90000, 7.378967
55.93000, 0.5823970
55.96000, 4.445984
55.99000, 1.791901
56.02000, 3.449127
56.05000, 0.6359250
56.08000, 4.173157
56.11000, 10.32941
56.14000, 14.46674
56.17000, 13.97229
56.20000, 12.28696
56.23000, 14.45386
56.26000, 14.74088
56.29000, 16.56604
56.32000, 12.41541
56.35000, 8.111938
56.38000, 13.09564
56.41000, 12.15149
56.44000, 13.71747
56.47000, 13.67963
56.50000, 15.54791
56.53000, 7.027435
56.56000, 3.448059
56.59000, 4.617859
56.62000, 10.22687
56.65000, 17.77298
56.68000, 17.59430
56.71000, 17.58875
56.74000, 15.67957
56.77000, 9.939972
56.80000, 7.203094
56.83000, 4.508392
56.86000, 0.5468440
56.89000, 1.929474
56.92000, 5.742249
56.95000, 14.58420
56.98000, 17.95731
57.01000, 17.26263
57.04000, 17.07504
57.07000, 12.28668
57.10000, 11.24179
57.13000, 5.886444
57.16000, 4.912659
57.19000, 1.241302
57.22000, 4.052704
57.25000, 1.695831
57.28000, 2.933533
57.31000, 0.2527770
57.34000, 4.795898
57.37000, 0.5315550
57.40000, 8.326752
57.43000, 11.40012
57.46000, 10.16360
57.49000, 6.024231
57.52000, 7.234100
57.55000, 8.127106
57.58000, 7.372284
57.61000, 9.308563
57.64000, 6.847076
57.67000, 7.062195
57.70000, 5.485504
57.73000, 4.916351
57.76000, 4.810944
57.79000, 2.156616
57.82000, 1.910217
57.85000, 7.881287
57.88000, 9.305939
57.91000, 6.415771
57.94000, 6.122833
57.97000, 4.817047
58.00000, 5.911469
58.03000, 9.217133
58.06000, 12.63794
58.09000, 15.01794
58.12000, 15.43115
58.15000, 14.13754
58.18000, 11.91119
58.21000, 11.07968
58.24000, 9.262695
58.27000, 11.43689
58.30000, 13.49628
58.33000, 16.29593
58.36000, 16.66241
58.39000, 19.56375
58.42000, 17.46600
58.45000, 17.51544
58.48000, 17.94708
58.51000, 18.32895
58.54000, 18.24005
58.57000, 16.41153
58.60000, 14.69867
58.63000, 11.55240
58.66000, 9.626312
58.69000, 6.705444
58.72000, 8.593781
58.75000, 6.168365
58.78000, 5.568054
58.81000, 8.002869
58.84000, 7.941864
58.87000, 6.302124
58.90000, 8.083557
58.93000, 12.09525
58.96000, 11.74716
58.99000, 13.55130
59.02000, 16.72662
59.05000, 13.12921
59.08000, 10.45404
59.11000, 12.22110
59.14000, 22.53339
59.17000, 27.51190
59.20000, 26.96564
59.23000, 24.40454
59.26000, 13.77423
59.29000, 5.982025
59.32000, 8.178589
59.35000, 9.608398
59.38000, 9.082367
59.41000, 9.053650
59.44000, 7.274109
59.47000, 8.074829
59.50000, 8.857880
59.53000, 2.496185
59.56000, 0.2977600
59.59000, 0.8055110
59.62000, 0.4414060
59.65000, 2.207336
59.68000, 2.604523
59.71000, 7.660065
59.74000, 11.49890
59.77000, 13.28693
59.80000, 12.84720
59.83000, 17.26236
59.86000, 19.28653
59.89000, 24.10352
59.92000, 28.00879
59.95000, 32.25934
59.98000, 23.49808
60.01000, 15.97607
60.04000, 13.42230
60.07000, 15.02286
60.10000, 17.06567
60.13000, 18.08365
60.16000, 22.88593
60.19000, 22.48151
60.22000, 18.56238
60.25000, 14.12057
60.28000, 7.675018
60.31000, 8.449005
60.34000, 10.46503
60.37000, 7.138306
60.40000, 7.943573
60.43000, 10.21817
60.46000, 14.30695
60.49000, 15.67999
60.52000, 16.08221
60.55000, 16.73566
60.58000, 13.96832
60.61000, 16.81857
60.64000, 15.69360
60.67000, 20.28329
60.70000, 19.97537
60.73000, 20.60083
60.76000, 19.74570
60.79000, 15.54892
60.82000, 7.392731
60.85000, 6.396332
60.88000, 9.233978
60.91000, 8.069702
60.94000, 9.555969
60.97000, 7.024017
61.00000, 9.941010
61.03000, 12.67096
61.06000, 7.316711
61.09000, 11.30228
61.12000, 15.11945
61.15000, 9.801239
61.18000, 8.012421
61.21000, 4.977783
61.24000, 6.142731
61.27000, 9.281952
61.30000, 0.7443850
61.33000, 3.520660
61.36000, 1.2787000E-02
61.39000, 1.598572
61.42000, 0.5490110
61.45000, 3.996094
61.48000, 1.263397
61.51000, 2.120728
61.54000, 11.22675
61.57000, 12.84119
61.60000, 10.96399
61.63000, 13.26822
61.66000, 12.02292
61.69000, 13.55493
61.72000, 11.09244
61.75000, 10.41434
61.78000, 11.31259
61.81000, 11.43927
61.84000, 8.192352
61.87000, 8.764008
61.90000, 11.70914
61.93000, 13.00861
61.96000, 10.29648
61.99000, 7.077881
62.02000, 1.639648
62.05000, 1.206909
62.08000, 4.858612
62.11000, 10.06378
62.14000, 14.26440
62.17000, 9.520477
62.20000, 7.888275
62.23000, 7.138763
62.26000, 5.106659
62.29000, 8.462982
62.32000, 16.25574
62.35000, 26.21637
62.38000, 24.14780
62.41000, 19.27518
62.44000, 17.42209
62.47000, 17.05865
62.50000, 16.69675
62.53000, 16.56247
62.56000, 13.14679
62.59000, 10.34772
62.62000, 8.822266
62.65000, 8.301422
62.68000, 8.198273
62.71000, 4.999695
62.74000, 7.236298
62.77000, 10.50748
62.80000, 6.535187
62.83000, 0.8414610
62.86000, 1.432587
62.89000, 2.590851
62.92000, 5.591888
62.95000, 10.16754
62.98000, 12.26529
63.01000, 12.48047
63.04000, 13.69058
63.07000, 16.79971
63.10000, 15.53101
63.13000, 15.53943
63.16000, 20.72110
63.19000, 20.75308
63.22000, 17.52588
63.25000, 21.23383
63.28000, 14.26373
63.31000, 7.737122
63.34000, 9.764008
63.37000, 11.48840
63.40000, 12.05930
63.43000, 12.73465
63.46000, 15.05951
63.49000, 8.140778
63.52000, 6.288574
63.55000, 9.679749
63.58000, 11.67337
63.61000, 11.54245
63.64000, 7.968872
63.67000, 9.085754
63.70000, 5.695099
63.73000, 6.822144
63.76000, 10.53278
63.79000, 13.41110
63.82000, 12.27216
63.85000, 7.581879
63.88000, 1.728729
63.91000, 4.488678
63.94000, 4.216339
63.97000, 9.799896
64.00000, 7.057617
64.03000, 7.719391
64.06000, 8.817261
64.09000, 7.746765
64.12000, 9.963226
64.15000, 8.026825
64.18000, 11.33664
64.21000, 12.98364
64.24000, 10.61227
64.27000, 10.82770
64.30000, 12.45197
64.33000, 11.96320
64.36000, 15.01260
64.39000, 15.89731
64.42000, 16.37558
64.45000, 18.95413
64.48000, 21.30493
64.51000, 18.37680
64.54000, 17.77023
64.57000, 16.01962
64.60000, 14.63593
64.63000, 12.99820
64.66000, 10.48285
64.69000, 9.099274
64.72000, 7.202789
64.75000, 4.959412
64.78000, 6.708557
64.81000, 8.167297
64.84000, 5.083252
64.87000, 0.1808470
64.90000, 0.2933350
64.93000, 2.064331
64.96000, 5.222961
64.99000, 11.71365
65.02000, 15.17853
65.05000, 13.03192
65.08000, 0.0000000E+00
##END=



