##NAMES=Felsobanyaite
##RRUFFID=R060239
##IDEAL CHEMISTRY=Al_4_(S^6+^O_4_)(OH)_10_&#183;4H_2_O
##LOCALITY=El Dragon mine, Potosi, Bolivia
##OWNER=RRUFF
##SOURCE=Michael Scott
##DESCRIPTION=White, massive powder associated with light blue chalcomenite.
##DIFFRACTION SAMPLE DESCRIPTION=Powder, using Mo radiation
##STATUS=The identification of this mineral has been confirmed by X-ray diffraction.
##URL=rruff.info/R060239
##CELL PARAMETERS=a: 13.050(5) b: 10.124(5) c: 11.103(7) alpha: 90 beta: 103.90(4) gamma: 90 volume: 1424.0(7) crystal system: monoclinic
3.930000, 0.0000000E+00
3.950000, 6.706200
3.970000, 8.928466
3.990000, 12.68011
4.010000, 11.97386
4.030000, 4.105084
4.050000, 0.6343060
4.070000, 3.654735
4.090000, 3.006879
4.110000, 27.22087
4.130000, 70.25706
4.150000, 121.5076
4.170000, 172.5129
4.190000, 241.2336
4.210000, 321.9432
4.230000, 400.3179
4.250000, 486.2106
4.270000, 562.0679
4.290000, 638.6587
4.310000, 721.7833
4.330000, 782.2662
4.350000, 816.0998
4.370000, 853.3331
4.390000, 851.4160
4.410000, 866.7960
4.430000, 866.2706
4.450000, 865.2917
4.470000, 880.0978
4.490000, 887.6005
4.510000, 886.8434
4.530000, 873.4858
4.550000, 832.2495
4.570000, 782.5023
4.590000, 727.0448
4.610000, 671.2815
4.630000, 612.8047
4.650000, 554.7880
4.670000, 483.1502
4.690000, 409.8310
4.710000, 343.9500
4.730000, 290.4987
4.750000, 252.5207
4.770000, 223.2719
4.790000, 196.0507
4.810000, 164.8786
4.830000, 131.3049
4.850000, 106.5800
4.870000, 91.86947
4.890000, 77.35640
4.910000, 52.14586
4.930000, 38.66627
4.950000, 27.64158
4.970000, 14.24857
4.990000, 12.16260
5.010000, 17.36895
5.030000, 26.78264
5.050000, 34.60756
5.070000, 39.85148
5.090000, 47.91694
5.110000, 47.67750
5.130000, 52.70495
5.150000, 72.98948
5.170000, 95.41504
5.190000, 115.6558
5.210000, 126.4809
5.230000, 131.4340
5.250000, 147.5668
5.270000, 167.0340
5.290000, 179.2462
5.310000, 190.9272
5.330000, 208.9557
5.350000, 213.5702
5.370000, 225.0977
5.390000, 235.6011
5.410000, 243.0210
5.430000, 259.2285
5.450000, 276.6267
5.470000, 299.2393
5.490000, 322.3344
5.510000, 325.5673
5.530000, 330.3742
5.550000, 333.1045
5.570000, 334.0562
5.590000, 348.3164
5.610000, 354.9060
5.630000, 357.0867
5.650000, 359.9418
5.670000, 355.0537
5.690000, 347.1572
5.710000, 337.3594
5.730000, 323.0623
5.750000, 300.0457
5.770000, 280.9668
5.790000, 279.3898
5.810000, 280.6849
5.830000, 280.1405
5.850000, 281.1997
5.870000, 288.1361
5.890000, 288.0002
5.910000, 291.5038
5.930000, 295.4874
5.950000, 296.6098
5.970000, 305.9623
5.990000, 309.7211
6.010000, 313.6471
6.030000, 318.1810
6.050000, 309.4305
6.070000, 294.5645
6.090000, 274.1732
6.110000, 256.5121
6.130000, 234.5465
6.150000, 205.7173
6.170000, 165.4214
6.190000, 132.3439
6.210000, 109.8754
6.230000, 95.94913
6.250000, 75.14590
6.270000, 49.29267
6.290000, 27.14138
6.310000, 1.774006
6.330000, 9.207998
6.350000, 8.431534
6.370000, 4.950607
6.390000, 11.17022
6.410000, 16.96860
6.430000, 11.20576
6.450000, 5.557765
6.470000, 0.4606360
6.490000, 5.402630
6.510000, 5.337744
6.530000, 4.836224
6.550000, 3.263159
6.570000, 5.425670
6.590000, 17.67163
6.610000, 14.67899
6.630000, 0.4077820
6.650000, 5.663009
6.670000, 4.219493
6.690000, 17.71146
6.710000, 48.22113
6.730000, 91.67041
6.750000, 136.3369
6.770000, 185.7959
6.790000, 228.5710
6.810000, 269.6479
6.830000, 297.8037
6.850000, 324.0686
6.870000, 337.6618
6.890000, 343.2532
6.910000, 346.5448
6.930000, 349.3063
6.950000, 345.3255
6.970000, 351.0495
6.990000, 347.4574
7.010000, 327.9826
7.030000, 295.9225
7.050000, 253.3982
7.070000, 212.2175
7.090000, 170.0139
7.110000, 130.8739
7.130000, 88.32546
7.150000, 48.25278
7.170000, 20.57721
7.190000, 5.312019
7.210000, 14.95380
7.230000, 6.121454
7.250000, 1.067162
7.270000, 1.897457
7.290000, 5.504625
7.310000, 9.827583
7.330000, 5.864325
7.350000, 8.702082
7.370000, 1.784916
7.390000, 12.99338
7.410000, 5.009031
7.430000, 29.89420
7.450000, 61.83291
7.470000, 96.53838
7.490000, 133.8517
7.510000, 169.4034
7.530000, 211.0550
7.550000, 247.7979
7.570000, 279.8793
7.590000, 309.1641
7.610000, 329.2549
7.630000, 352.1751
7.650000, 361.6031
7.670000, 372.2511
7.690000, 388.7950
7.710000, 398.5782
7.730000, 400.1334
7.750000, 389.9824
7.770000, 371.1187
7.790000, 352.8589
7.810000, 330.7457
7.830000, 304.5717
7.850000, 274.6983
7.870000, 236.7084
7.890000, 197.7797
7.910000, 163.4984
7.930000, 133.9091
7.950000, 112.5520
7.970000, 96.45505
7.990000, 81.15371
8.010000, 76.95272
8.030000, 69.96548
8.050000, 60.77405
8.070000, 47.70965
8.090000, 40.39059
8.110000, 36.17291
8.130000, 39.55129
8.150000, 44.70854
8.170000, 49.81556
8.190000, 56.94896
8.210000, 63.10665
8.230000, 69.75848
8.250000, 76.39331
8.270000, 79.83189
8.290000, 90.92915
8.310000, 102.8013
8.330000, 119.5150
8.350000, 142.7133
8.370000, 171.9942
8.390000, 205.5736
8.410000, 250.8026
8.430000, 306.4397
8.450000, 376.0383
8.470000, 444.0795
8.490000, 528.0319
8.510000, 627.3134
8.530000, 732.1038
8.550000, 836.1136
8.570000, 935.2627
8.590000, 1024.481
8.610000, 1085.478
8.630000, 1150.086
8.650000, 1210.661
8.670000, 1265.307
8.690000, 1304.589
8.710000, 1336.677
8.730000, 1361.177
8.750000, 1368.389
8.770000, 1375.411
8.790000, 1370.236
8.810000, 1361.486
8.830000, 1340.539
8.850000, 1312.821
8.870000, 1257.646
8.890000, 1199.731
8.910000, 1140.718
8.930000, 1077.633
8.950000, 1026.248
8.970000, 968.7025
8.990000, 924.5264
9.010000, 871.0051
9.030000, 826.5308
9.050000, 800.8066
9.070000, 769.3577
9.090000, 730.6155
9.110000, 698.8933
9.130000, 668.1614
9.150000, 641.4590
9.170000, 604.1664
9.190000, 570.8956
9.210000, 534.1982
9.230000, 495.1769
9.250000, 461.3926
9.270000, 426.4951
9.290000, 391.6525
9.310000, 362.5463
9.330000, 330.8255
9.350000, 304.2786
9.370000, 276.2273
9.390000, 242.4327
9.410000, 212.0366
9.430000, 191.9024
9.450000, 174.3513
9.470000, 146.4964
9.490000, 123.4875
9.510000, 113.4427
9.530000, 104.4179
9.550000, 94.87032
9.570000, 85.48292
9.590000, 77.46964
9.610000, 65.65747
9.630000, 59.48065
9.650000, 50.17848
9.670000, 39.98178
9.690000, 32.62761
9.710000, 22.24415
9.730000, 15.64910
9.750000, 11.26752
9.770000, 2.884897
9.790000, 1.274105
9.810000, 1.984941
9.830000, 2.325945
9.850000, 3.915516
9.870000, 4.690563
9.890000, 13.61104
9.910000, 12.00398
9.930000, 12.73837
9.950000, 11.18250
9.970000, 7.287817
9.990000, 6.125309
10.01000, 6.085002
10.03000, 4.156493
10.05000, 3.867125
10.07000, 9.189532
10.09000, 7.450532
10.11000, 4.764274
10.13000, 1.675652
10.15000, 9.159884
10.17000, 2.384979
10.19000, 9.599100
10.21000, 26.40818
10.23000, 40.26535
10.25000, 61.51058
10.27000, 83.12186
10.29000, 101.3712
10.31000, 121.7993
10.33000, 145.9894
10.35000, 164.7655
10.37000, 183.7790
10.39000, 202.1057
10.41000, 217.4412
10.43000, 233.3591
10.45000, 246.7151
10.47000, 250.6215
10.49000, 256.0794
10.51000, 250.0218
10.53000, 243.8211
10.55000, 234.5833
10.57000, 225.2057
10.59000, 212.0047
10.61000, 200.0328
10.63000, 183.9806
10.65000, 171.8992
10.67000, 154.8667
10.69000, 139.2158
10.71000, 124.0196
10.73000, 111.2152
10.75000, 96.60143
10.77000, 94.77116
10.79000, 96.96262
10.81000, 100.3666
10.83000, 119.1971
10.85000, 151.7849
10.87000, 179.6445
10.89000, 207.2384
10.91000, 239.4248
10.93000, 277.5864
10.95000, 311.8855
10.97000, 346.0021
10.99000, 378.4167
11.01000, 412.7831
11.03000, 444.8607
11.05000, 476.4205
11.07000, 501.7555
11.09000, 527.3634
11.11000, 545.8568
11.13000, 566.4863
11.15000, 581.9845
11.17000, 591.7217
11.19000, 590.7397
11.21000, 590.8416
11.23000, 584.4980
11.25000, 561.0781
11.27000, 533.4938
11.29000, 491.8559
11.31000, 448.6435
11.33000, 402.8952
11.35000, 367.2710
11.37000, 337.2326
11.39000, 303.8733
11.41000, 271.6246
11.43000, 238.0173
11.45000, 203.4212
11.47000, 169.4616
11.49000, 152.6761
11.51000, 130.8912
11.53000, 109.2506
11.55000, 94.71878
11.57000, 84.81171
11.59000, 89.69462
11.61000, 107.2980
11.63000, 125.1305
11.65000, 147.2364
11.67000, 167.2230
11.69000, 185.6512
11.71000, 204.4388
11.73000, 226.6951
11.75000, 248.8384
11.77000, 276.0462
11.79000, 308.2005
11.81000, 335.7490
11.83000, 356.0205
11.85000, 368.3823
11.87000, 380.1001
11.89000, 389.9431
11.91000, 393.5509
11.93000, 384.6237
11.95000, 371.5515
11.97000, 354.1492
11.99000, 320.6121
12.01000, 283.5787
12.03000, 243.5425
12.05000, 208.0378
12.07000, 173.9443
12.09000, 138.2120
12.11000, 97.93698
12.13000, 68.18434
12.15000, 44.60756
12.17000, 24.02599
12.19000, 1.323260
12.21000, 0.5901490
12.23000, 13.09937
12.25000, 1.659646
12.27000, 5.928173
12.29000, 5.649954
12.31000, 7.782677
12.33000, 6.599148
12.35000, 2.102451
12.37000, 6.7019999E-02
12.39000, 3.437074
12.41000, 9.322933
12.43000, 18.16800
12.45000, 9.472481
12.47000, 5.131186
12.49000, 7.204563
12.51000, 12.49870
12.53000, 3.977659
12.55000, 12.20310
12.57000, 24.57006
12.59000, 36.13402
12.61000, 56.85735
12.63000, 65.37187
12.65000, 77.15426
12.67000, 100.4557
12.69000, 113.2403
12.71000, 118.4720
12.73000, 115.6507
12.75000, 101.6203
12.77000, 97.98484
12.79000, 97.69412
12.81000, 95.52017
12.83000, 99.03310
12.85000, 93.12280
12.87000, 87.43105
12.89000, 93.37798
12.91000, 94.67738
12.93000, 94.47432
12.95000, 91.57384
12.97000, 89.23253
12.99000, 94.78674
13.01000, 101.6802
13.03000, 104.8549
13.05000, 100.1589
13.07000, 90.55601
13.09000, 74.32431
13.11000, 59.56153
13.13000, 58.07497
13.15000, 52.45612
13.17000, 46.51838
13.19000, 49.35146
13.21000, 44.53936
13.23000, 35.87822
13.25000, 41.46579
13.27000, 39.88514
13.29000, 29.30421
13.31000, 19.63092
13.33000, 5.221382
13.35000, 5.913750
13.37000, 4.642708
13.39000, 9.236057
13.41000, 18.07912
13.43000, 22.61091
13.45000, 29.38085
13.47000, 36.05508
13.49000, 44.41648
13.51000, 51.77321
13.53000, 56.81573
13.55000, 56.38521
13.57000, 61.68147
13.59000, 67.66151
13.61000, 73.74422
13.63000, 88.49078
13.65000, 102.4651
13.67000, 120.4817
13.69000, 133.6409
13.71000, 147.8784
13.73000, 160.8363
13.75000, 174.8622
13.77000, 188.4651
13.79000, 202.7942
13.81000, 215.3870
13.83000, 229.4133
13.85000, 240.9753
13.87000, 247.2121
13.89000, 244.4424
13.91000, 238.7070
13.93000, 238.1535
13.95000, 231.4061
13.97000, 217.9055
13.99000, 198.3241
14.01000, 178.3155
14.03000, 152.6432
14.05000, 128.1753
14.07000, 107.7196
14.09000, 94.61523
14.11000, 78.66311
14.13000, 67.03724
14.15000, 62.10059
14.17000, 53.49198
14.19000, 45.01050
14.21000, 46.48005
14.23000, 50.17057
14.25000, 56.06614
14.27000, 66.08563
14.29000, 82.41996
14.31000, 101.6762
14.33000, 118.2513
14.35000, 133.9901
14.37000, 146.1616
14.39000, 153.0769
14.41000, 159.9557
14.43000, 165.0102
14.45000, 163.4651
14.47000, 157.5434
14.49000, 138.9793
14.51000, 132.7603
14.53000, 117.7096
14.55000, 96.22604
14.57000, 82.23769
14.59000, 70.62813
14.61000, 59.58601
14.63000, 44.05066
14.65000, 28.18435
14.67000, 19.86971
14.69000, 12.68675
14.71000, 8.192555
14.73000, 13.14293
14.75000, 24.05080
14.77000, 42.68673
14.79000, 58.32825
14.81000, 78.96235
14.83000, 103.1399
14.85000, 124.2896
14.87000, 148.7801
14.89000, 183.3332
14.91000, 222.9588
14.93000, 254.8652
14.95000, 289.0515
14.97000, 321.3704
14.99000, 345.2095
15.01000, 360.2072
15.03000, 366.2887
15.05000, 360.3795
15.07000, 350.1855
15.09000, 339.2145
15.11000, 329.3524
15.13000, 315.1998
15.15000, 304.0831
15.17000, 286.5163
15.19000, 268.6520
15.21000, 254.2823
15.23000, 242.7785
15.25000, 234.1823
15.27000, 228.7096
15.29000, 224.5026
15.31000, 221.0489
15.33000, 223.2209
15.35000, 219.4572
15.37000, 212.6320
15.39000, 203.7612
15.41000, 195.0300
15.43000, 188.3528
15.45000, 177.0052
15.47000, 157.9488
15.49000, 133.2548
15.51000, 110.4550
15.53000, 98.15231
15.55000, 79.72340
15.57000, 66.72414
15.59000, 56.13472
15.61000, 47.43190
15.63000, 37.24156
15.65000, 29.06214
15.67000, 20.48732
15.69000, 12.65587
15.71000, 4.105805
15.73000, 0.5108340
15.75000, 8.457497
15.77000, 4.698674
15.79000, 1.201567
15.81000, 2.501916
15.83000, 2.324203
15.85000, 2.314048
15.87000, 2.402628
15.89000, 1.264114
15.91000, 3.9974999E-02
15.93000, 4.651615
15.95000, 4.763919
15.97000, 1.301360
15.99000, 2.689758
16.01000, 0.2582570
16.03000, 7.167984
16.05000, 3.804584
16.07000, 3.925699
16.09000, 1.829172
16.11000, 0.5249250
16.13000, 1.498291
16.15000, 0.6714590
16.17000, 2.685417
16.19000, 7.070291
16.21000, 5.317023
16.23000, 1.435745
16.25000, 2.053875
16.27000, 1.301339
16.29000, 8.786631
16.31000, 23.00080
16.33000, 33.52924
16.35000, 45.35191
16.37000, 63.06982
16.39000, 83.55400
16.41000, 108.5256
16.43000, 131.3072
16.45000, 154.0450
16.47000, 180.3070
16.49000, 206.3073
16.51000, 233.6925
16.53000, 262.8407
16.55000, 281.3719
16.57000, 295.1400
16.59000, 311.4332
16.61000, 314.5695
16.63000, 328.7088
16.65000, 331.8887
16.67000, 331.0227
16.69000, 321.6552
16.71000, 304.3957
16.73000, 287.1039
16.75000, 271.7072
16.77000, 249.6210
16.79000, 225.6467
16.81000, 202.2803
16.83000, 185.4529
16.85000, 168.1060
16.87000, 150.4904
16.89000, 128.8906
16.91000, 106.6758
16.93000, 85.76589
16.95000, 66.27303
16.97000, 53.29418
16.99000, 45.30018
17.01000, 39.34056
17.03000, 32.18620
17.05000, 21.72017
17.07000, 14.61878
17.09000, 3.237139
17.11000, 1.847101
17.13000, 1.256151
17.15000, 3.201358
17.17000, 1.325447
17.19000, 1.578165
17.21000, 0.4676460
17.23000, 4.171239
17.25000, 2.008193
17.27000, 4.117612
17.29000, 4.425715
17.31000, 8.860891
17.33000, 7.784567
17.35000, 5.048302
17.37000, 2.059550
17.39000, 1.305572
17.41000, 2.757587
17.43000, 3.279645
17.45000, 7.286728
17.47000, 20.62783
17.49000, 41.77407
17.51000, 68.92047
17.53000, 95.42100
17.55000, 121.3097
17.57000, 147.9817
17.59000, 165.6879
17.61000, 181.9513
17.63000, 205.8422
17.65000, 239.0204
17.67000, 271.7099
17.69000, 306.0408
17.71000, 346.4202
17.73000, 392.2491
17.75000, 436.1041
17.77000, 469.7928
17.79000, 497.2900
17.81000, 532.2365
17.83000, 564.0789
17.85000, 597.8184
17.87000, 628.5360
17.89000, 647.5607
17.91000, 655.4432
17.93000, 653.0089
17.95000, 650.3454
17.97000, 647.5385
17.99000, 633.3797
18.01000, 610.8097
18.03000, 587.2988
18.05000, 556.6293
18.07000, 522.9088
18.09000, 485.0687
18.11000, 444.7814
18.13000, 405.4147
18.15000, 369.0294
18.17000, 337.1024
18.19000, 298.8091
18.21000, 269.5940
18.23000, 240.8595
18.25000, 222.6725
18.27000, 208.0559
18.29000, 195.5228
18.31000, 190.3455
18.33000, 185.5589
18.35000, 183.3589
18.37000, 201.0586
18.39000, 216.7708
18.41000, 222.9897
18.43000, 240.8032
18.45000, 266.4492
18.47000, 285.2360
18.49000, 305.0853
18.51000, 327.5641
18.53000, 358.9809
18.55000, 391.0557
18.57000, 420.0863
18.59000, 438.9143
18.61000, 445.4204
18.63000, 444.3004
18.65000, 440.8723
18.67000, 430.2246
18.69000, 413.6054
18.71000, 392.5757
18.73000, 364.6670
18.75000, 335.2856
18.77000, 296.3280
18.79000, 257.7170
18.81000, 221.9356
18.83000, 190.1687
18.85000, 164.3981
18.87000, 135.8135
18.89000, 113.9907
18.91000, 88.43742
18.93000, 61.97289
18.95000, 47.78005
18.97000, 38.84118
18.99000, 32.44346
19.01000, 30.22367
19.03000, 29.85703
19.05000, 25.51652
19.07000, 22.42410
19.09000, 21.96686
19.11000, 26.62583
19.13000, 30.20498
19.15000, 33.89438
19.17000, 35.04307
19.19000, 35.05206
19.21000, 36.09080
19.23000, 42.73212
19.25000, 48.40834
19.27000, 53.45267
19.29000, 57.90334
19.31000, 61.93622
19.33000, 65.04626
19.35000, 68.51116
19.37000, 71.33612
19.39000, 73.76886
19.41000, 74.52138
19.43000, 76.29107
19.45000, 77.18594
19.47000, 78.28102
19.49000, 78.28861
19.51000, 79.24194
19.53000, 78.91000
19.55000, 73.58111
19.57000, 75.17819
19.59000, 85.23661
19.61000, 94.33163
19.63000, 99.95164
19.65000, 105.5635
19.67000, 112.7368
19.69000, 117.7671
19.71000, 126.2896
19.73000, 131.9450
19.75000, 131.0640
19.77000, 130.0642
19.79000, 127.6926
19.81000, 126.6608
19.83000, 135.2131
19.85000, 143.0493
19.87000, 146.6034
19.89000, 152.0056
19.91000, 158.5735
19.93000, 163.0022
19.95000, 166.4912
19.97000, 170.4422
19.99000, 171.2431
20.01000, 174.4522
20.03000, 175.4956
20.05000, 173.8105
20.07000, 176.9176
20.09000, 177.8511
20.11000, 166.6199
20.13000, 148.8972
20.15000, 130.7638
20.17000, 107.8670
20.19000, 92.35255
20.21000, 76.38562
20.23000, 59.19025
20.25000, 43.17840
20.27000, 23.50715
20.29000, 8.400500
20.31000, 5.296565
20.33000, 6.440833
20.35000, 5.814959
20.37000, 3.940500
20.39000, 2.615184
20.41000, 2.231396
20.43000, 1.638138
20.45000, 5.384444
20.47000, 0.1494120
20.49000, 2.794031
20.51000, 2.206544
20.53000, 0.2971270
20.55000, 5.036047
20.57000, 2.515607
20.59000, 1.211670
20.61000, 3.664263
20.63000, 7.093121
20.65000, 13.05423
20.67000, 19.83520
20.69000, 39.60509
20.71000, 61.48215
20.73000, 72.10287
20.75000, 80.46917
20.77000, 86.23415
20.79000, 83.25188
20.81000, 82.31970
20.83000, 89.15626
20.85000, 94.59530
20.87000, 89.70841
20.89000, 81.57119
20.91000, 71.96064
20.93000, 61.75550
20.95000, 47.58946
20.97000, 34.23707
20.99000, 21.77039
21.01000, 6.690021
21.03000, 3.265131
21.05000, 2.274446
21.07000, 1.725417
21.09000, 0.2965040
21.11000, 1.518204
21.13000, 1.633878
21.15000, 4.272536
21.17000, 2.473283
21.19000, 3.758578
21.21000, 2.920952
21.23000, 0.4649370
21.25000, 1.052896
21.27000, 2.161930
21.29000, 0.7629040
21.31000, 0.9162370
21.33000, 9.336742
21.35000, 18.39590
21.37000, 26.62514
21.39000, 38.17048
21.41000, 54.21996
21.43000, 81.56547
21.45000, 116.6671
21.47000, 147.6819
21.49000, 189.5638
21.51000, 240.9710
21.53000, 289.7923
21.55000, 344.3052
21.57000, 391.7467
21.59000, 433.7704
21.61000, 483.4890
21.63000, 525.2614
21.65000, 555.4722
21.67000, 576.3853
21.69000, 586.8830
21.71000, 586.5793
21.73000, 573.7302
21.75000, 552.9294
21.77000, 522.4904
21.79000, 486.7730
21.81000, 453.3625
21.83000, 410.9767
21.85000, 368.7437
21.87000, 326.9999
21.89000, 286.0889
21.91000, 251.4261
21.93000, 224.8261
21.95000, 194.1115
21.97000, 171.5948
21.99000, 164.6543
22.01000, 157.5915
22.03000, 155.8407
22.05000, 156.7272
22.07000, 157.3514
22.09000, 166.2936
22.11000, 174.3516
22.13000, 184.1075
22.15000, 190.5061
22.17000, 196.9106
22.19000, 202.5405
22.21000, 202.5038
22.23000, 202.4477
22.25000, 207.4082
22.27000, 197.3942
22.29000, 187.7408
22.31000, 172.5329
22.33000, 152.2746
22.35000, 135.2683
22.37000, 117.7209
22.39000, 103.6281
22.41000, 92.76363
22.43000, 80.37982
22.45000, 74.73421
22.47000, 63.64814
22.49000, 57.48515
22.51000, 54.21429
22.53000, 48.06692
22.55000, 48.18196
22.57000, 47.56107
22.59000, 46.09641
22.61000, 45.60883
22.63000, 42.36156
22.65000, 44.49098
22.67000, 52.05499
22.69000, 56.86972
22.71000, 56.61024
22.73000, 60.10571
22.75000, 58.26453
22.77000, 60.01897
22.79000, 68.06190
22.81000, 74.19375
22.83000, 75.71684
22.85000, 81.43143
22.87000, 97.48070
22.89000, 117.1836
22.91000, 136.9876
22.93000, 156.3268
22.95000, 176.9946
22.97000, 197.3316
22.99000, 218.2766
23.01000, 239.1828
23.03000, 259.1070
23.05000, 276.2072
23.07000, 283.1814
23.09000, 291.5353
23.11000, 292.6063
23.13000, 287.2679
23.15000, 284.9263
23.17000, 278.9924
23.19000, 273.2184
23.21000, 260.4879
23.23000, 239.6023
23.25000, 215.5191
23.27000, 188.0814
23.29000, 160.6212
23.31000, 139.6234
23.33000, 122.6000
23.35000, 106.6540
23.37000, 90.56717
23.39000, 70.61667
23.41000, 55.71329
23.43000, 46.60484
23.45000, 37.69389
23.47000, 26.35061
23.49000, 17.33794
23.51000, 11.42202
23.53000, 9.106874
23.55000, 5.157946
23.57000, 1.429274
23.59000, 5.774874
23.61000, 7.264962
23.63000, 10.10482
23.65000, 11.80478
23.67000, 13.70471
23.69000, 12.65614
23.71000, 16.89690
23.73000, 21.60692
23.75000, 19.53096
23.77000, 12.88000
23.79000, 6.316995
23.81000, 1.375897
23.83000, 3.948713
23.85000, 9.986430
23.87000, 16.16806
23.89000, 17.74551
23.91000, 13.21879
23.93000, 8.896868
23.95000, 1.475759
23.97000, 1.136417
23.99000, 0.5392920
24.01000, 1.772912
24.03000, 1.932982
24.05000, 2.552474
24.07000, 3.493203
24.09000, 2.983735
24.11000, 0.2173160
24.13000, 1.898526
24.15000, 2.649533
24.17000, 0.5861350
24.19000, 3.822159
24.21000, 3.409003
24.23000, 7.522396
24.25000, 7.181322
24.27000, 1.315346
24.29000, 0.4321840
24.31000, 2.826549
24.33000, 0.5019030
24.35000, 4.284457
24.37000, 0.9063550
24.39000, 1.578138
24.41000, 0.6164520
24.43000, 3.917027
24.45000, 7.608459
24.47000, 5.789784
24.49000, 1.648353
24.51000, 1.715350
24.53000, 1.424419
24.55000, 2.866047
24.57000, 0.1316470
24.59000, 6.0433999E-02
24.61000, 9.223941
24.63000, 10.81386
24.65000, 8.649997
24.67000, 5.312356
24.69000, 0.9830420
24.71000, 1.671682
24.73000, 1.829677
24.75000, 2.385517
24.77000, 1.898724
24.79000, 2.242092
24.81000, 1.288130
24.83000, 5.406371
24.85000, 14.74075
24.87000, 17.48341
24.89000, 18.13325
24.91000, 26.50420
24.93000, 34.84385
24.95000, 36.72820
24.97000, 43.21947
24.99000, 54.31851
25.01000, 69.85242
25.03000, 85.12131
25.05000, 100.4430
25.07000, 114.9123
25.09000, 136.7594
25.11000, 153.2782
25.13000, 173.2225
25.15000, 189.2404
25.17000, 205.6910
25.19000, 231.1618
25.21000, 260.5266
25.23000, 278.6290
25.25000, 309.0159
25.27000, 328.6086
25.29000, 325.5891
25.31000, 316.3270
25.33000, 310.4273
25.35000, 309.0165
25.37000, 310.5892
25.39000, 310.9552
25.41000, 306.1379
25.43000, 291.6714
25.45000, 280.5508
25.47000, 262.3533
25.49000, 244.2803
25.51000, 228.8522
25.53000, 221.2803
25.55000, 217.5207
25.57000, 207.7390
25.59000, 190.3339
25.61000, 177.7878
25.63000, 166.7826
25.65000, 158.6170
25.67000, 152.6534
25.69000, 144.5886
25.71000, 135.0305
25.73000, 123.1263
25.75000, 110.5897
25.77000, 101.6092
25.79000, 92.78825
25.81000, 86.72717
25.83000, 88.16286
25.85000, 89.35796
25.87000, 86.19836
25.89000, 77.32716
25.91000, 74.33435
25.93000, 84.01987
25.95000, 89.66482
25.97000, 97.26427
25.99000, 99.99458
26.01000, 96.07450
26.03000, 92.29123
26.05000, 88.78162
26.07000, 89.80277
26.09000, 89.35307
26.11000, 87.54344
26.13000, 87.02620
26.15000, 88.79032
26.17000, 83.54090
26.19000, 82.34508
26.21000, 79.67300
26.23000, 82.75962
26.25000, 91.37894
26.27000, 93.44292
26.29000, 88.81657
26.31000, 84.78095
26.33000, 80.84199
26.35000, 72.59373
26.37000, 58.89286
26.39000, 51.62088
26.41000, 47.43692
26.43000, 45.14452
26.45000, 47.16422
26.47000, 47.78435
26.49000, 47.41756
26.51000, 39.91163
26.53000, 39.13976
26.55000, 36.82850
26.57000, 35.29216
26.59000, 32.55704
26.61000, 28.30669
26.63000, 17.52619
26.65000, 15.30953
26.67000, 14.93476
26.69000, 15.25638
26.71000, 12.04617
26.73000, 7.134710
26.75000, 7.296961
26.77000, 3.816805
26.79000, 2.203731
26.81000, 0.6635440
26.83000, 0.6710380
26.85000, 2.076584
26.87000, 0.2525050
26.89000, 0.7256440
26.91000, 1.473926
26.93000, 0.7107100
26.95000, 1.700677
26.97000, 7.938415
26.99000, 13.09099
27.01000, 13.48593
27.03000, 11.08086
27.05000, 4.569795
27.07000, 0.4173320
27.09000, 1.577403
27.11000, 0.5915830
27.13000, 0.2495950
27.15000, 0.4382890
27.17000, 0.1248010
27.19000, 1.172458
27.21000, 2.266520
27.23000, 2.705540
27.25000, 1.844874
27.27000, 1.252566
27.29000, 8.8973001E-02
27.31000, 2.817084
27.33000, 0.2694620
27.35000, 0.2340600
27.37000, 0.3757630
27.39000, 0.9985650
27.41000, 0.9950280
27.43000, 0.5003740
27.45000, 6.196874
27.47000, 15.31753
27.49000, 26.44407
27.51000, 34.58643
27.53000, 40.69864
27.55000, 54.56968
27.57000, 64.99550
27.59000, 73.74419
27.61000, 80.14575
27.63000, 89.36603
27.65000, 90.75218
27.67000, 97.02505
27.69000, 102.6595
27.71000, 108.7831
27.73000, 116.1233
27.75000, 122.9610
27.77000, 132.2539
27.79000, 139.7696
27.81000, 150.1872
27.83000, 162.6399
27.85000, 179.8428
27.87000, 193.9258
27.89000, 199.6319
27.91000, 205.0791
27.93000, 216.3812
27.95000, 217.7835
27.97000, 217.1434
27.99000, 228.7300
28.01000, 238.6445
28.03000, 251.5359
28.05000, 266.1681
28.07000, 279.6595
28.09000, 293.6120
28.11000, 302.5352
28.13000, 312.6358
28.15000, 323.9883
28.17000, 339.4087
28.19000, 345.5741
28.21000, 352.7170
28.23000, 359.7124
28.25000, 359.4966
28.27000, 364.3696
28.29000, 365.1070
28.31000, 364.3274
28.33000, 364.0695
28.35000, 365.7836
28.37000, 377.1808
28.39000, 393.0018
28.41000, 410.9900
28.43000, 431.1567
28.45000, 447.5537
28.47000, 463.9004
28.49000, 472.6773
28.51000, 488.4590
28.53000, 503.8919
28.55000, 516.0815
28.57000, 518.4347
28.59000, 515.8304
28.61000, 513.9636
28.63000, 509.2657
28.65000, 487.5829
28.67000, 474.5811
28.69000, 462.3995
28.71000, 446.5499
28.73000, 434.9257
28.75000, 423.5505
28.77000, 412.2150
28.79000, 398.4275
28.81000, 385.3882
28.83000, 369.1379
28.85000, 357.4619
28.87000, 340.2232
28.89000, 326.7930
28.91000, 312.5864
28.93000, 297.6135
28.95000, 286.1882
28.97000, 276.7744
28.99000, 269.0480
29.01000, 254.2140
29.03000, 239.4062
29.05000, 228.1819
29.07000, 214.9103
29.09000, 198.8063
29.11000, 189.5716
29.13000, 177.3153
29.15000, 169.9867
29.17000, 158.4361
29.19000, 150.4979
29.21000, 150.9984
29.23000, 150.2096
29.25000, 145.3258
29.27000, 144.2118
29.29000, 142.2510
29.31000, 129.2247
29.33000, 126.7509
29.35000, 130.2115
29.37000, 130.2185
29.39000, 133.2736
29.41000, 143.0513
29.43000, 158.8410
29.45000, 174.9482
29.47000, 183.9670
29.49000, 191.2980
29.51000, 196.1001
29.53000, 189.2142
29.55000, 195.8670
29.57000, 189.6956
29.59000, 181.8743
29.61000, 178.9870
29.63000, 166.5737
29.65000, 155.7152
29.67000, 148.9414
29.69000, 146.3275
29.71000, 141.4694
29.73000, 135.8818
29.75000, 118.5990
29.77000, 104.9570
29.79000, 91.56856
29.81000, 80.46851
29.83000, 69.53890
29.85000, 59.37328
29.87000, 48.61101
29.89000, 41.40502
29.91000, 30.88741
29.93000, 24.90510
29.95000, 16.08317
29.97000, 8.170535
29.99000, 4.882288
30.01000, 5.660409
30.03000, 3.989949
30.05000, 2.798847
30.07000, 2.338142
30.09000, 0.5677750
30.11000, 1.028781
30.13000, 1.073828
30.15000, 0.3468570
30.17000, 2.793475
30.19000, 2.038992
30.21000, 0.3631000
30.23000, 0.1158580
30.25000, 0.8753820
30.27000, 0.2946430
30.29000, 2.377809
30.31000, 2.518737
30.33000, 0.8416310
30.35000, 0.9201520
30.37000, 0.4215380
30.39000, 2.218889
30.41000, 5.173746
30.43000, 6.609137
30.45000, 7.708854
30.47000, 7.487261
30.49000, 5.454729
30.51000, 3.414240
30.53000, 1.951742
30.55000, 4.083702
30.57000, 7.417183
30.59000, 10.69593
30.61000, 19.44081
30.63000, 24.20521
30.65000, 22.24249
30.67000, 27.95920
30.69000, 28.46928
30.71000, 29.85796
30.73000, 31.61615
30.75000, 35.95498
30.77000, 40.91238
30.79000, 45.44338
30.81000, 51.95496
30.83000, 52.42519
30.85000, 53.62806
30.87000, 60.67056
30.89000, 64.77470
30.91000, 67.19143
30.93000, 67.80886
30.95000, 71.56300
30.97000, 71.43876
30.99000, 71.12922
31.01000, 68.27833
31.03000, 58.96819
31.05000, 52.03973
31.07000, 48.04498
31.09000, 42.49096
31.11000, 35.04566
31.13000, 32.18121
31.15000, 25.89727
31.17000, 25.46618
31.19000, 21.08184
31.21000, 19.32327
31.23000, 17.09138
31.25000, 14.59429
31.27000, 11.45088
31.29000, 11.18168
31.31000, 11.52028
31.33000, 12.15724
31.35000, 16.07086
31.37000, 20.35223
31.39000, 25.62537
31.41000, 30.80131
31.43000, 32.82899
31.45000, 34.49445
31.47000, 33.28171
31.49000, 30.09575
31.51000, 35.64759
31.53000, 42.25531
31.55000, 41.62800
31.57000, 39.85574
31.59000, 35.95476
31.61000, 35.86215
31.63000, 37.74549
31.65000, 40.65677
31.67000, 42.13335
31.69000, 30.75094
31.71000, 17.61711
31.73000, 13.46135
31.75000, 15.00070
31.77000, 19.20211
31.79000, 20.39031
31.81000, 11.74226
31.83000, 7.496881
31.85000, 8.090336
31.87000, 7.605395
31.89000, 5.535056
31.91000, 1.085331
31.93000, 0.9019940
31.95000, 0.8655890
31.97000, 1.401829
31.99000, 0.8782290
32.01000, 0.1254640
32.03000, 2.934641
32.05000, 6.965126
32.07000, 6.216520
32.09000, 1.826797
32.11000, 0.1803040
32.13000, 0.4148480
32.15000, 1.114136
32.17000, 6.384527
32.19000, 9.927039
32.21000, 16.60862
32.23000, 21.32276
32.25000, 21.77942
32.27000, 21.18667
32.29000, 23.52945
32.31000, 22.40981
32.33000, 27.42710
32.35000, 33.76012
32.37000, 29.07533
32.39000, 24.24369
32.41000, 28.36140
32.43000, 25.61307
32.45000, 24.01113
32.47000, 22.62920
32.49000, 23.63196
32.51000, 21.03055
32.53000, 21.81989
32.55000, 20.20190
32.57000, 17.48548
32.59000, 15.69848
32.61000, 18.96109
32.63000, 21.44853
32.65000, 15.12137
32.67000, 12.34152
32.69000, 8.190063
32.71000, 1.795170
32.73000, 1.753167
32.75000, 0.3965280
32.77000, 0.6269570
32.79000, 0.1959070
32.81000, 0.6147140
32.83000, 0.8066760
32.85000, 0.9544330
32.87000, 0.8791540
32.89000, 0.1228200
32.91000, 0.6022350
32.93000, 0.7430720
32.95000, 1.893929
32.97000, 0.5135110
32.99000, 0.9283050
33.01000, 0.9099680
33.03000, 1.537460
33.05000, 0.4515630
33.07000, 4.683897
33.09000, 12.38423
33.11000, 12.87129
33.13000, 16.16607
33.15000, 18.62958
33.17000, 16.75887
33.19000, 17.21588
33.21000, 22.66260
33.23000, 28.72206
33.25000, 32.11624
33.27000, 33.62114
33.29000, 36.88279
33.31000, 38.53871
33.33000, 39.21350
33.35000, 40.98693
33.37000, 40.05203
33.39000, 39.03593
33.41000, 40.33747
33.43000, 38.09477
33.45000, 36.95176
33.47000, 36.63737
33.49000, 32.61485
33.51000, 33.94502
33.53000, 31.29785
33.55000, 27.65142
33.57000, 20.89464
33.59000, 16.17360
33.61000, 18.01926
33.63000, 30.82559
33.65000, 37.93559
33.67000, 41.23831
33.69000, 43.56170
33.71000, 38.78781
33.73000, 29.86754
33.75000, 27.81902
33.77000, 35.53013
33.79000, 40.21292
33.81000, 35.65644
33.83000, 30.31557
33.85000, 28.31142
33.87000, 22.18590
33.89000, 21.83110
33.91000, 23.00297
33.93000, 20.30947
33.95000, 12.64769
33.97000, 5.965511
33.99000, 5.693003
34.01000, 4.463152
34.03000, 0.2688750
34.05000, 0.6979520
34.07000, 1.408657
34.09000, 0.3987300
34.11000, 5.446463
34.13000, 1.574300
34.15000, 3.307215
34.17000, 9.458172
34.19000, 12.43479
34.21000, 6.945981
34.23000, 1.181975
34.25000, 0.5868010
34.27000, 1.624302
34.29000, 2.097007
34.31000, 1.579401
34.33000, 4.310797
34.35000, 6.485777
34.37000, 1.844264
34.39000, 0.5116220
34.41000, 1.548766
34.43000, 1.009317
34.45000, 4.078618
34.47000, 11.29517
34.49000, 16.95843
34.51000, 14.89853
34.53000, 14.54296
34.55000, 14.91384
34.57000, 12.19936
34.59000, 11.90871
34.61000, 14.48741
34.63000, 14.15796
34.65000, 17.68506
34.67000, 28.09384
34.69000, 36.88424
34.71000, 43.90310
34.73000, 54.37985
34.75000, 66.27603
34.77000, 72.96010
34.79000, 81.17378
34.81000, 82.97522
34.83000, 85.54225
34.85000, 85.92596
34.87000, 91.18985
34.89000, 87.25891
34.91000, 98.83132
34.93000, 107.1553
34.95000, 105.0994
34.97000, 105.4295
34.99000, 102.5972
35.01000, 90.99762
35.03000, 86.83646
35.05000, 81.06924
35.07000, 70.29832
35.09000, 64.54501
35.11000, 60.80339
35.13000, 48.48495
35.15000, 39.70197
35.17000, 36.83418
35.19000, 37.29261
35.21000, 35.91679
35.23000, 32.04599
35.25000, 28.66056
35.27000, 31.73199
35.29000, 39.11118
35.31000, 38.90337
35.33000, 37.62293
35.35000, 35.78889
35.37000, 36.99251
35.39000, 30.57487
35.41000, 23.11367
35.43000, 20.82641
35.45000, 21.54967
35.47000, 29.98151
35.49000, 31.03668
35.51000, 27.90922
35.53000, 27.92870
35.55000, 26.39004
35.57000, 18.91892
35.59000, 23.15853
35.61000, 21.00847
35.63000, 19.13674
35.65000, 24.69234
35.67000, 22.18257
35.69000, 23.41016
35.71000, 23.64073
35.73000, 20.53060
35.75000, 14.11376
35.77000, 14.34719
35.79000, 13.95893
35.81000, 17.46893
35.83000, 23.58821
35.85000, 28.13775
35.87000, 28.32757
35.89000, 33.75173
35.91000, 34.01808
35.93000, 25.20369
35.95000, 21.16556
35.97000, 17.74564
35.99000, 12.19002
36.01000, 6.595595
36.03000, 7.470514
36.05000, 16.99258
36.07000, 31.45893
36.09000, 39.01247
36.11000, 35.33832
36.13000, 26.43029
36.15000, 12.53859
36.17000, 18.05606
36.19000, 18.87977
36.21000, 14.69767
36.23000, 16.06869
36.25000, 15.14142
36.27000, 14.77539
36.29000, 15.89800
36.31000, 16.33619
36.33000, 17.32903
36.35000, 18.48108
36.37000, 18.76023
36.39000, 15.65319
36.41000, 16.80426
36.43000, 20.35463
36.45000, 16.90162
36.47000, 11.06970
36.49000, 12.89702
36.51000, 3.430779
36.53000, 0.7102460
36.55000, 7.636242
36.57000, 7.435063
36.59000, 4.070892
36.61000, 0.2241100
36.63000, 0.2174020
36.65000, 0.8954280
36.67000, 1.982522
36.69000, 0.6792070
36.71000, 3.581706
36.73000, 3.521565
36.75000, 7.450802
36.77000, 9.393640
36.79000, 12.36272
36.81000, 13.02858
36.83000, 12.72401
36.85000, 13.34553
36.87000, 7.457560
36.89000, 9.580347
36.91000, 15.41404
36.93000, 11.81962
36.95000, 1.512288
36.97000, 0.4700130
36.99000, 0.6410880
37.01000, 2.598379
37.03000, 3.409986
37.05000, 1.949655
37.07000, 3.886388
37.09000, 1.538303
37.11000, 0.5367390
37.13000, 2.343371
37.15000, 1.570421
37.17000, 0.7134700
37.19000, 2.770051
37.21000, 1.8686000E-02
37.23000, 1.349423
37.25000, 0.3337100
37.27000, 4.117712
37.29000, 3.186999
37.31000, 0.8861370
37.33000, 1.304122
37.35000, 2.7340001E-03
37.37000, 2.656937
37.39000, 1.582599
37.41000, 1.492839
37.43000, 3.687303
37.45000, 6.070163
37.47000, 7.281494
37.49000, 7.217762
37.51000, 7.251873
37.53000, 9.201165
37.55000, 10.53485
37.57000, 14.51707
37.59000, 15.84833
37.61000, 22.07166
37.63000, 18.90201
37.65000, 7.615366
37.67000, 5.566517
37.69000, 8.276177
37.71000, 9.134479
37.73000, 6.585503
37.75000, 6.877675
37.77000, 8.985393
37.79000, 10.97623
37.81000, 14.00381
37.83000, 10.83183
37.85000, 7.708372
37.87000, 11.47861
37.89000, 10.26062
37.91000, 13.72834
37.93000, 12.37533
37.95000, 8.673492
37.97000, 9.575861
37.99000, 2.862659
38.01000, 0.5947330
38.03000, 4.252421
38.05000, 0.1431220
38.07000, 0.3995940
38.09000, 0.9323830
38.11000, 3.088588
38.13000, 7.644491
38.15000, 12.55517
38.17000, 16.38299
38.19000, 22.95998
38.21000, 25.27748
38.23000, 29.73052
38.25000, 33.21826
38.27000, 34.49760
38.29000, 42.92657
38.31000, 45.90753
38.33000, 47.01786
38.35000, 43.79949
38.37000, 42.60032
38.39000, 44.20927
38.41000, 45.78686
38.43000, 46.62203
38.45000, 47.81751
38.47000, 47.28487
38.49000, 46.43605
38.51000, 47.00437
38.53000, 47.63186
38.55000, 50.52193
38.57000, 50.91737
38.59000, 53.03833
38.61000, 53.83115
38.63000, 54.68217
38.65000, 56.60995
38.67000, 52.21824
38.69000, 51.20291
38.71000, 43.77946
38.73000, 45.43724
38.75000, 40.79647
38.77000, 40.09867
38.79000, 40.93686
38.81000, 41.39954
38.83000, 40.91482
38.85000, 42.00137
38.87000, 42.63255
38.89000, 42.55661
38.91000, 47.72666
38.93000, 46.98610
38.95000, 39.54693
38.97000, 33.72321
38.99000, 27.46630
39.01000, 25.15497
39.03000, 19.68179
39.05000, 13.38737
39.07000, 14.17848
39.09000, 13.84421
39.11000, 11.29537
39.13000, 20.88378
39.15000, 25.59242
39.17000, 22.40552
39.19000, 23.59341
39.21000, 24.02641
39.23000, 21.37811
39.25000, 23.89157
39.27000, 25.62206
39.29000, 26.12220
39.31000, 15.75189
39.33000, 10.89552
39.35000, 12.02915
39.37000, 18.05461
39.39000, 21.64631
39.41000, 22.28587
39.43000, 15.03337
39.45000, 7.195807
39.47000, 0.8182190
39.49000, 0.1914840
39.51000, 0.9650620
39.53000, 1.293825
39.55000, 3.471268
39.57000, 3.935909
39.59000, 2.5100000E-02
39.61000, 0.7428910
39.63000, 3.806237
39.65000, 5.341420
39.67000, 10.58019
39.69000, 12.58084
39.71000, 11.90198
39.73000, 7.493360
39.75000, 8.665647
39.77000, 4.971699
39.79000, 1.601556
39.81000, 9.749576
39.83000, 17.70690
39.85000, 12.00641
39.87000, 7.500224
39.89000, 8.417315
39.91000, 6.441674
39.93000, 11.07827
39.95000, 15.59310
39.97000, 10.99821
39.99000, 16.28757
40.01000, 18.67219
40.03000, 15.43703
40.05000, 19.05311
40.07000, 22.47935
40.09000, 23.88784
40.11000, 24.45956
40.13000, 21.69549
40.15000, 17.88858
40.17000, 13.56690
40.19000, 11.94048
40.21000, 14.01119
40.23000, 9.202106
40.25000, 8.052226
40.27000, 0.4805560
40.29000, 0.7695540
40.31000, 0.2934520
40.33000, 2.801044
40.35000, 0.3854660
40.37000, 0.4929650
40.39000, 4.909967
40.41000, 2.990216
40.43000, 2.590602
40.45000, 13.99289
40.47000, 12.95924
40.49000, 6.556211
40.51000, 5.466319
40.53000, 1.112675
40.55000, 4.390203
40.57000, 1.413955
40.59000, 1.414915
40.61000, 7.700787
40.63000, 11.64661
40.65000, 11.43163
40.67000, 13.67478
40.69000, 17.47617
40.71000, 24.06529
40.73000, 26.19573
40.75000, 20.38352
40.77000, 12.82163
40.79000, 10.77104
40.81000, 7.292651
40.83000, 2.818378
40.85000, 4.594664
40.87000, 1.785263
40.89000, 0.5273010
40.91000, 4.999179
40.93000, 8.532216
40.95000, 5.525150
40.97000, 0.9843000
40.99000, 0.4656680
41.01000, 1.009732
41.03000, 0.4413810
41.05000, 3.781554
41.07000, 0.5071240
41.09000, 0.2888830
41.11000, 1.059087
41.13000, 1.222506
41.15000, 0.7711000
41.17000, 1.684054
41.19000, 2.245153
41.21000, 0.5014560
41.23000, 0.6050270
41.25000, 0.9936100
41.27000, 0.1153190
41.29000, 0.1077830
41.31000, 0.3659520
41.33000, 0.7964900
41.35000, 0.4952820
41.37000, 0.5508700
41.39000, 2.146897
41.41000, 1.556883
41.43000, 1.036028
41.45000, 2.522670
41.47000, 3.976607
41.49000, 0.6459230
41.51000, 5.895635
41.53000, 5.118177
41.55000, 0.9519610
41.57000, 3.231755
41.59000, 5.853232
41.61000, 3.315982
41.63000, 0.4770920
41.65000, 0.5264970
41.67000, 0.1804320
41.69000, 3.548315
41.71000, 2.237698
41.73000, 5.094471
41.75000, 6.201577
41.77000, 3.760713
41.79000, 9.299381
41.81000, 14.46949
41.83000, 5.126987
41.85000, 4.664951
41.87000, 3.526528
41.89000, 5.232291
41.91000, 8.052291
41.93000, 13.13530
41.95000, 9.885313
41.97000, 6.086457
41.99000, 3.479888
42.01000, 10.77088
42.03000, 18.09580
42.05000, 22.16180
42.07000, 19.71276
42.09000, 25.40344
42.11000, 15.98449
42.13000, 27.94521
42.15000, 27.74830
42.17000, 23.96850
42.19000, 18.97290
42.21000, 12.12588
42.23000, 11.63150
42.25000, 14.68982
42.27000, 18.57373
42.29000, 15.73754
42.31000, 5.702717
42.33000, 4.308358
42.35000, 8.989236
42.37000, 11.00778
42.39000, 9.056991
42.41000, 4.431951
42.43000, 8.544613
42.45000, 9.712038
42.47000, 3.603158
42.49000, 4.073053
42.51000, 6.462698
42.53000, 11.03815
42.55000, 14.18040
42.57000, 11.53942
42.59000, 5.915246
42.61000, 0.8138960
42.63000, 3.964375
42.65000, 8.798726
42.67000, 8.631912
42.69000, 7.073978
42.71000, 2.425291
42.73000, 0.2668020
42.75000, 0.4810090
42.77000, 0.9255590
42.79000, 3.503797
42.81000, 7.520676
42.83000, 8.017521
42.85000, 7.868048
42.87000, 2.017056
42.89000, 1.127714
42.91000, 1.000072
42.93000, 4.404462
42.95000, 9.241923
42.97000, 5.606383
42.99000, 6.229927
43.01000, 9.925736
43.03000, 8.019503
43.05000, 5.088344
43.07000, 0.9487060
43.09000, 0.5259600
43.11000, 0.3240790
43.13000, 1.191846
43.15000, 1.149631
43.17000, 1.661133
43.19000, 0.4402610
43.21000, 8.2381003E-02
43.23000, 0.4379140
43.25000, 0.1551100
43.27000, 0.8240610
43.29000, 0.7196360
43.31000, 0.1732110
43.33000, 1.864966
43.35000, 0.8264200
43.37000, 2.872292
43.39000, 14.35787
43.41000, 17.98876
43.43000, 13.43785
43.45000, 10.19336
43.47000, 7.640450
43.49000, 8.306773
43.51000, 8.887346
43.53000, 12.11825
43.55000, 14.62103
43.57000, 16.71410
43.59000, 17.52168
43.61000, 20.59325
43.63000, 17.49243
43.65000, 14.83245
43.67000, 14.26834
43.69000, 12.98808
43.71000, 14.01269
43.73000, 17.64223
43.75000, 19.22177
43.77000, 19.59982
43.79000, 20.80747
43.81000, 22.18352
43.83000, 25.51106
43.85000, 20.46849
43.87000, 24.98845
43.89000, 22.79430
43.91000, 23.64259
43.93000, 26.23959
43.95000, 22.34064
43.97000, 17.78185
43.99000, 18.04996
44.01000, 18.16606
44.03000, 15.46320
44.05000, 16.75323
44.07000, 16.68560
44.09000, 11.16722
44.11000, 20.82516
44.13000, 27.34691
44.15000, 22.96107
44.17000, 21.42725
44.19000, 24.08537
44.21000, 25.24052
44.23000, 21.88069
44.25000, 25.47717
44.27000, 22.92764
44.29000, 9.227619
44.31000, 2.347949
44.33000, 1.337081
44.35000, 1.687892
44.37000, 0.5850420
44.39000, 1.874752
44.41000, 5.149173
44.43000, 0.7187860
44.45000, 2.750597
44.47000, 12.35555
44.49000, 12.32273
44.51000, 12.67315
44.53000, 7.818728
44.55000, 7.272557
44.57000, 10.58171
44.59000, 11.32911
44.61000, 13.77874
44.63000, 14.30070
44.65000, 10.87490
44.67000, 8.769517
44.69000, 7.406023
44.71000, 7.071190
44.73000, 11.70607
44.75000, 15.77714
44.77000, 18.64165
44.79000, 20.63069
44.81000, 23.25382
44.83000, 25.22623
44.85000, 27.17774
44.87000, 26.91576
44.89000, 29.10634
44.91000, 31.70449
44.93000, 31.76918
44.95000, 28.21840
44.97000, 22.42215
44.99000, 12.07652
45.01000, 8.849492
45.03000, 12.15015
45.05000, 11.24150
45.07000, 18.24565
45.09000, 17.43018
45.11000, 14.50164
45.13000, 20.50532
45.15000, 19.29696
45.17000, 16.03031
45.19000, 12.88660
45.21000, 8.124967
45.23000, 5.674065
45.25000, 8.072038
45.27000, 14.32618
45.29000, 18.05790
45.31000, 16.08681
45.33000, 10.14510
45.35000, 0.1828600
45.37000, 0.2758150
45.39000, 0.1333150
45.41000, 4.063207
45.43000, 15.21289
45.45000, 18.70735
45.47000, 12.92858
45.49000, 10.41178
45.51000, 6.979442
45.53000, 7.970931
45.55000, 10.31329
45.57000, 11.23164
45.59000, 6.892124
45.61000, 7.623969
45.63000, 14.18003
45.65000, 6.458500
45.67000, 2.817184
45.69000, 13.72151
45.71000, 18.40890
45.73000, 16.64447
45.75000, 20.30055
45.77000, 16.18522
45.79000, 17.56322
45.81000, 19.82474
45.83000, 14.48542
45.85000, 16.07028
45.87000, 18.60777
45.89000, 23.34839
45.91000, 25.33810
45.93000, 23.55683
45.95000, 26.47455
45.97000, 23.70073
45.99000, 25.59398
46.01000, 25.06989
46.03000, 23.50145
46.05000, 19.20501
46.07000, 13.42645
46.09000, 8.974671
46.11000, 5.640105
46.13000, 4.567589
46.15000, 3.202212
46.17000, 1.574955
46.19000, 3.792794
46.21000, 9.888917
46.23000, 8.151241
46.25000, 12.08863
46.27000, 14.33879
46.29000, 12.48865
46.31000, 16.82336
46.33000, 15.78975
46.35000, 21.90741
46.37000, 17.32253
46.39000, 18.33273
46.41000, 22.53315
46.43000, 23.59692
46.45000, 18.52307
46.47000, 17.28897
46.49000, 10.83289
46.51000, 7.295362
46.53000, 5.251909
46.55000, 3.444093
46.57000, 1.072172
46.59000, 2.206103
46.61000, 0.1613680
46.63000, 2.842526
46.65000, 2.040673
46.67000, 4.378067
46.69000, 10.69837
46.71000, 15.43629
46.73000, 18.34903
46.75000, 20.63140
46.77000, 15.57436
46.79000, 20.14201
46.81000, 19.18774
46.83000, 14.45364
46.85000, 17.86270
46.87000, 16.65504
46.89000, 16.42872
46.91000, 16.72626
46.93000, 13.29857
46.95000, 13.53299
46.97000, 6.177284
46.99000, 5.842295
47.01000, 1.481867
47.03000, 1.141052
47.05000, 0.9819320
47.07000, 0.2803270
47.09000, 0.6428890
47.11000, 2.058590
47.13000, 2.320987
47.15000, 5.371551
47.17000, 6.602860
47.19000, 8.162734
47.21000, 8.065923
47.23000, 8.089819
47.25000, 5.974843
47.27000, 4.516585
47.29000, 2.131066
47.31000, 7.186521
47.33000, 4.430722
47.35000, 8.982667
47.37000, 3.472000
47.39000, 4.411791
47.41000, 3.490620
47.43000, 5.590951
47.45000, 10.25886
47.47000, 10.06815
47.49000, 12.54865
47.51000, 10.15928
47.53000, 3.471873
47.55000, 0.9255990
47.57000, 3.478586
47.59000, 6.397027
47.61000, 0.5179550
47.63000, 0.5193970
47.65000, 1.832754
47.67000, 2.012439
47.69000, 3.376546
47.71000, 6.662301
47.73000, 6.293633
47.75000, 6.881905
47.77000, 7.629567
47.79000, 2.499920
47.81000, 3.398253
47.83000, 9.124230
47.85000, 1.134310
47.87000, 1.418702
47.89000, 11.76020
47.91000, 17.89958
47.93000, 10.91030
47.95000, 5.582761
47.97000, 5.961850
47.99000, 5.216838
48.01000, 1.332725
48.03000, 0.9579770
48.05000, 0.6264200
48.07000, 1.5237000E-02
48.09000, 0.1302160
48.11000, 0.1574560
48.13000, 1.213045
48.15000, 5.009481
48.17000, 25.04660
48.19000, 33.14563
48.21000, 40.81801
48.23000, 43.11457
48.25000, 26.09624
48.27000, 5.926481
48.29000, 1.924121
48.31000, 2.169837
48.33000, 1.642542
48.35000, 5.144762
48.37000, 28.21338
48.39000, 30.67245
48.41000, 34.61718
48.43000, 52.13332
48.45000, 59.24988
48.47000, 65.99494
48.49000, 66.33675
48.51000, 39.57259
48.53000, 23.29786
48.55000, 48.59605
48.57000, 65.58151
48.59000, 22.39642
48.61000, 24.20808
48.63000, 52.08680
48.65000, 0.0000000E+00
##END=



