##NAMES=Goudeyite
##RRUFFID=R060268
##IDEAL CHEMISTRY=Cu^2+^_6_Al(As^5+^O_4_)_3_(OH)_6_&#183;3H_2_O
##LOCALITY=Copper Stope, Majuba Hill mine, Pershing County, Nevada, USA
##OWNER=RRUFF
##SOURCE=Michael Scott
##DESCRIPTION=Green acicular crystals in spherical aggregates
##DIFFRACTION SAMPLE DESCRIPTION=Powder, using Mo radiation
##STATUS=The identification of this mineral has been confirmed only by X-ray diffraction
##URL=rruff.info/R060268
##CELL PARAMETERS=a: 13.463(3) b: 13.463(3) c: 5.914(2) alpha: 90 beta: 90 gamma: 120 volume: 928.3(4) crystal system: hexagonal
6.000000, 0.0000000E+00
6.010000, 1.6357001E-02
6.020000, 6.7382999E-02
6.030000, 3.518250
6.040000, 2.931458
6.050000, 3.181274
6.060000, 6.749023
6.070000, 11.12000
6.080000, 2.837830
6.090000, 0.6015630
6.100000, 6.372559
6.110000, 8.899841
6.120000, 12.09235
6.130000, 17.70093
6.140000, 22.61176
6.150000, 21.40948
6.160000, 16.66693
6.170000, 9.520264
6.180000, 6.281921
6.190000, 14.39783
6.200000, 22.50323
6.210000, 23.00360
6.220000, 20.92981
6.230000, 19.76953
6.240000, 13.02716
6.250000, 11.05304
6.260000, 7.118713
6.270000, 3.983154
6.280000, 3.413086
6.290000, 6.440491
6.300000, 8.383240
6.310000, 10.47742
6.320000, 15.07904
6.330000, 20.66412
6.340000, 22.75232
6.350000, 25.22296
6.360000, 22.68500
6.370000, 17.28748
6.380000, 21.77954
6.390000, 21.70099
6.400000, 17.94104
6.410000, 25.81934
6.420000, 31.67529
6.430000, 33.69836
6.440000, 38.10828
6.450000, 37.71454
6.460000, 30.63690
6.470000, 28.31482
6.480000, 28.72821
6.490000, 31.75665
6.500000, 33.10022
6.510000, 37.32812
6.520000, 45.26385
6.530000, 51.03571
6.540000, 55.82135
6.550000, 57.80066
6.560000, 51.09363
6.570000, 51.01617
6.580000, 48.55054
6.590000, 43.74530
6.600000, 41.69891
6.610000, 35.45856
6.620000, 29.04547
6.630000, 27.13013
6.640000, 24.49329
6.650000, 20.28107
6.660000, 14.65540
6.670000, 15.86670
6.680000, 17.43274
6.690000, 16.09161
6.700000, 20.12988
6.710000, 21.90765
6.720000, 17.34509
6.730000, 14.63257
6.740000, 12.72003
6.750000, 11.61755
6.760000, 13.74567
6.770000, 23.86743
6.780000, 32.45062
6.790000, 39.74530
6.800000, 50.12134
6.810000, 50.23822
6.820000, 45.97534
6.830000, 44.31274
6.840000, 39.12073
6.850000, 39.19922
6.860000, 37.56805
6.870000, 32.96747
6.880000, 27.60730
6.890000, 26.80768
6.900000, 29.98865
6.910000, 29.44025
6.920000, 29.87238
6.930000, 33.12512
6.940000, 36.38837
6.950000, 39.85211
6.960000, 47.12665
6.970000, 44.91180
6.980000, 37.49750
6.990000, 32.86377
7.000000, 26.76068
7.010000, 16.46832
7.020000, 14.90649
7.030000, 17.72882
7.040000, 21.28333
7.050000, 23.59088
7.060000, 27.55914
7.070000, 37.51788
7.080000, 44.82727
7.090000, 49.37738
7.100000, 54.75806
7.110000, 56.39935
7.120000, 50.95605
7.130000, 49.68506
7.140000, 51.10107
7.150000, 48.89221
7.160000, 49.31323
7.170000, 47.39429
7.180000, 32.67731
7.190000, 22.34082
7.200000, 16.47852
7.210000, 17.08295
7.220000, 15.71808
7.230000, 7.644287
7.240000, 4.759521
7.250000, 11.84229
7.260000, 15.02197
7.270000, 11.93811
7.280000, 12.97339
7.290000, 13.76331
7.300000, 9.543579
7.310000, 6.495117
7.320000, 8.189453
7.330000, 7.302246
7.340000, 8.254028
7.350000, 10.70386
7.360000, 12.59277
7.370000, 17.72424
7.380000, 24.99670
7.390000, 33.25085
7.400000, 41.66748
7.410000, 47.95679
7.420000, 44.61841
7.430000, 35.16223
7.440000, 26.06824
7.450000, 21.61633
7.460000, 15.01636
7.470000, 12.90820
7.480000, 17.01196
7.490000, 12.72754
7.500000, 10.81482
7.510000, 16.90259
7.520000, 25.37939
7.530000, 28.83752
7.540000, 26.34180
7.550000, 24.70227
7.560000, 25.52588
7.570000, 25.53271
7.580000, 21.93835
7.590000, 19.39502
7.600000, 22.75220
7.610000, 25.08398
7.620000, 25.94678
7.630000, 28.76062
7.640000, 27.33545
7.650000, 27.55139
7.660000, 36.17822
7.670000, 37.82593
7.680000, 32.45471
7.690000, 31.83423
7.700000, 34.44470
7.710000, 38.88586
7.720000, 44.81787
7.730000, 48.24097
7.740000, 47.86450
7.750000, 51.08899
7.760000, 55.58411
7.770000, 52.34985
7.780000, 47.63611
7.790000, 52.13281
7.800000, 51.91003
7.810000, 52.61768
7.820000, 52.88684
7.830000, 53.15674
7.840000, 49.93726
7.850000, 46.43835
7.860000, 45.99023
7.870000, 42.18250
7.880000, 40.13513
7.890000, 47.22839
7.900000, 46.96179
7.910000, 46.08594
7.920000, 45.29041
7.930000, 37.71509
7.940000, 37.82043
7.950000, 44.26624
7.960000, 41.99243
7.970000, 35.83899
7.980000, 37.61609
7.990000, 36.23352
8.000000, 33.25159
8.010000, 29.32996
8.020000, 24.81860
8.030000, 19.51782
8.040000, 12.22742
8.050000, 7.747559
8.060000, 0.5681150
8.070000, 2.051270
8.080000, 2.759277
8.090000, 4.219971
8.100000, 5.851196
8.110000, 9.712891
8.120000, 10.99500
8.130000, 10.29761
8.140000, 11.59070
8.150000, 11.93408
8.160000, 15.95801
8.170000, 20.03247
8.180000, 24.00732
8.190000, 19.40271
8.200000, 16.36853
8.210000, 14.77478
8.220000, 16.20154
8.230000, 13.51843
8.240000, 2.395020
8.250000, 2.118164
8.260000, 6.481689
8.270000, 10.83679
8.280000, 10.42432
8.290000, 12.04456
8.300000, 10.30750
8.310000, 1.826904
8.320000, 7.621704
8.330000, 5.663940
8.340000, 2.430176
8.350000, 8.590454
8.360000, 12.30127
8.370000, 20.33289
8.380000, 29.05591
8.390000, 32.59985
8.400000, 34.29651
8.410000, 37.34680
8.420000, 26.52014
8.430000, 17.40540
8.440000, 17.40173
8.450000, 16.33887
8.460000, 13.40735
8.470000, 3.736572
8.480000, 3.083130
8.490000, 1.174683
8.500000, 2.166748
8.510000, 2.989624
8.520000, 3.064331
8.530000, 1.240601
8.540000, 1.137573
8.550000, 1.604736
8.560000, 0.1230470
8.570000, 4.118530
8.580000, 14.15100
8.590000, 22.45410
8.600000, 26.86816
8.610000, 31.50354
8.620000, 32.72009
8.630000, 28.44775
8.640000, 29.78687
8.650000, 27.28711
8.660000, 25.53833
8.670000, 25.35034
8.680000, 17.97314
8.690000, 5.336670
8.700000, 3.280884
8.710000, 1.846069
8.720000, 1.058594
8.730000, 4.3823000E-02
8.740000, 3.500610
8.750000, 2.205811
8.760000, 1.071655
8.770000, 3.367432
8.780000, 1.803955
8.790000, 1.161133
8.800000, 8.728516
8.810000, 12.85657
8.820000, 18.05566
8.830000, 22.62537
8.840000, 25.36597
8.850000, 25.67737
8.860000, 23.53979
8.870000, 27.18286
8.880000, 28.34692
8.890000, 24.96167
8.900000, 30.25745
8.910000, 37.08386
8.920000, 40.31128
8.930000, 46.10962
8.940000, 60.21875
8.950000, 70.30884
8.960000, 77.59985
8.970000, 83.30176
8.980000, 90.93445
8.990000, 102.7882
9.000000, 116.5392
9.010000, 128.6992
9.020000, 139.4623
9.030000, 149.1096
9.040000, 160.4180
9.050000, 173.3127
9.060000, 188.4630
9.070000, 203.6440
9.080000, 224.2560
9.090000, 241.7789
9.100000, 251.9130
9.110000, 260.8279
9.120000, 269.4738
9.130000, 279.3407
9.140000, 285.6486
9.150000, 290.1975
9.160000, 300.1974
9.170000, 314.9081
9.180000, 325.2902
9.190000, 335.4830
9.200000, 349.4570
9.210000, 353.4321
9.220000, 354.5183
9.230000, 350.2056
9.240000, 338.2239
9.250000, 326.0531
9.260000, 311.2657
9.270000, 304.5293
9.280000, 301.0303
9.290000, 292.8942
9.300000, 287.6691
9.310000, 278.4552
9.320000, 269.8523
9.330000, 258.7607
9.340000, 240.1503
9.350000, 221.5109
9.360000, 205.1129
9.370000, 187.6759
9.380000, 174.9403
9.390000, 170.2759
9.400000, 163.8824
9.410000, 150.4604
9.420000, 135.6597
9.430000, 121.6801
9.440000, 107.0378
9.450000, 93.76367
9.460000, 80.92395
9.470000, 74.24939
9.480000, 70.75916
9.490000, 67.24438
9.500000, 65.12195
9.510000, 67.29492
9.520000, 73.54761
9.530000, 77.79187
9.540000, 79.09937
9.550000, 77.37659
9.560000, 72.80273
9.570000, 72.12000
9.580000, 74.65674
9.590000, 75.17188
9.600000, 75.93884
9.610000, 79.12415
9.620000, 81.09216
9.630000, 75.41003
9.640000, 73.42139
9.650000, 77.93433
9.660000, 82.39868
9.670000, 83.46143
9.680000, 84.41150
9.690000, 90.83276
9.700000, 95.72974
9.710000, 95.07886
9.720000, 99.53503
9.730000, 101.9976
9.740000, 103.8597
9.750000, 105.7855
9.760000, 106.0331
9.770000, 101.1648
9.780000, 97.86914
9.790000, 91.24524
9.800000, 84.90601
9.810000, 87.20618
9.820000, 91.39636
9.830000, 90.94702
9.840000, 90.01575
9.850000, 86.10242
9.860000, 81.01111
9.870000, 77.54138
9.880000, 70.34351
9.890000, 65.69763
9.900000, 60.86450
9.910000, 56.74585
9.920000, 52.54907
9.930000, 52.25952
9.940000, 50.91687
9.950000, 48.98438
9.960000, 45.97192
9.970000, 44.86377
9.980000, 40.32751
9.990000, 34.18408
10.00000, 33.98901
10.01000, 32.06592
10.02000, 30.03491
10.03000, 34.17578
10.04000, 39.74866
10.05000, 39.64368
10.06000, 36.24060
10.07000, 34.74939
10.08000, 31.67041
10.09000, 24.71350
10.10000, 18.34851
10.11000, 10.35571
10.12000, 7.004761
10.13000, 5.675903
10.14000, 4.359375
10.15000, 4.084839
10.16000, 3.082397
10.17000, 3.742065
10.18000, 3.983765
10.19000, 0.5423580
10.20000, 2.926514
10.21000, 1.920288
10.22000, 3.637451
10.23000, 3.967163
10.24000, 1.290771
10.25000, 1.612671
10.26000, 5.558228
10.27000, 7.716064
10.28000, 8.796143
10.29000, 10.25842
10.30000, 19.01282
10.31000, 21.80957
10.32000, 26.74841
10.33000, 31.36963
10.34000, 26.93311
10.35000, 24.90857
10.36000, 24.72656
10.37000, 23.31677
10.38000, 25.17932
10.39000, 26.56396
10.40000, 33.00110
10.41000, 39.27051
10.42000, 37.99219
10.43000, 36.89612
10.44000, 31.00244
10.45000, 31.00098
10.46000, 33.83215
10.47000, 29.31665
10.48000, 29.86340
10.49000, 31.77246
10.50000, 29.43396
10.51000, 30.60779
10.52000, 34.78394
10.53000, 34.58252
10.54000, 32.07361
10.55000, 34.22693
10.56000, 34.28284
10.57000, 29.10107
10.58000, 25.94165
10.59000, 23.53479
10.60000, 18.15039
10.61000, 15.33838
10.62000, 13.05872
10.63000, 12.11157
10.64000, 10.04712
10.65000, 12.28687
10.66000, 13.42236
10.67000, 11.18445
10.68000, 10.59241
10.69000, 11.11621
10.70000, 6.215454
10.71000, 3.207397
10.72000, 3.351807
10.73000, 3.138794
10.74000, 0.9283450
10.75000, 1.879517
10.76000, 3.075562
10.77000, 2.310303
10.78000, 7.743286
10.79000, 11.94666
10.80000, 9.502441
10.81000, 4.489258
10.82000, 0.1953130
10.83000, 2.401001
10.84000, 3.020020
10.85000, 0.7015380
10.86000, 2.945557
10.87000, 7.152100
10.88000, 3.982788
10.89000, 0.7032470
10.90000, 0.4342040
10.91000, 3.425293
10.92000, 1.880859
10.93000, 2.429810
10.94000, 0.4331050
10.95000, 3.180176
10.96000, 1.121704
10.97000, 2.846436
10.98000, 0.2336430
10.99000, 3.446411
11.00000, 1.925049
11.01000, 2.151611
11.02000, 4.036377
11.03000, 2.549805
11.04000, 2.678711
11.05000, 9.550781
11.06000, 16.71753
11.07000, 22.91772
11.08000, 30.69019
11.09000, 39.27563
11.10000, 46.40369
11.11000, 51.10461
11.12000, 49.27917
11.13000, 41.65674
11.14000, 36.64734
11.15000, 37.90076
11.16000, 35.32751
11.17000, 30.23694
11.18000, 32.76965
11.19000, 39.52539
11.20000, 44.76404
11.21000, 49.61536
11.22000, 54.83960
11.23000, 59.08655
11.24000, 66.01636
11.25000, 72.62891
11.26000, 74.80432
11.27000, 82.20251
11.28000, 90.52344
11.29000, 99.25720
11.30000, 114.4637
11.31000, 130.1331
11.32000, 146.1750
11.33000, 157.6100
11.34000, 172.9878
11.35000, 195.5883
11.36000, 212.8016
11.37000, 228.5878
11.38000, 247.0166
11.39000, 266.5520
11.40000, 292.4719
11.41000, 319.6326
11.42000, 338.5526
11.43000, 350.9055
11.44000, 365.3356
11.45000, 383.2640
11.46000, 391.7555
11.47000, 395.0096
11.48000, 403.6266
11.49000, 408.8063
11.50000, 409.5687
11.51000, 416.0742
11.52000, 422.9023
11.53000, 426.3633
11.54000, 425.4771
11.55000, 422.6936
11.56000, 415.4128
11.57000, 403.4149
11.58000, 381.4601
11.59000, 362.6776
11.60000, 342.5182
11.61000, 326.4915
11.62000, 310.0175
11.63000, 286.3164
11.64000, 262.7880
11.65000, 243.7024
11.66000, 219.8094
11.67000, 197.4094
11.68000, 179.0920
11.69000, 160.9075
11.70000, 144.3257
11.71000, 128.0767
11.72000, 110.4004
11.73000, 96.21680
11.74000, 84.86584
11.75000, 72.52771
11.76000, 60.53235
11.77000, 54.09961
11.78000, 44.93982
11.79000, 36.17261
11.80000, 31.06799
11.81000, 29.76624
11.82000, 35.49719
11.83000, 43.97070
11.84000, 49.04639
11.85000, 49.68237
11.86000, 48.14734
11.87000, 50.14990
11.88000, 49.08667
11.89000, 43.92603
11.90000, 41.52808
11.91000, 44.37256
11.92000, 44.89954
11.93000, 41.39905
11.94000, 38.57117
11.95000, 40.56873
11.96000, 49.50903
11.97000, 54.54407
11.98000, 58.28479
11.99000, 62.99792
12.00000, 64.13672
12.01000, 65.47693
12.02000, 71.88159
12.03000, 76.66675
12.04000, 82.18445
12.05000, 86.01465
12.06000, 88.75745
12.07000, 92.34204
12.08000, 96.79004
12.09000, 95.42981
12.10000, 97.12292
12.11000, 97.02271
12.12000, 96.93726
12.13000, 91.33020
12.14000, 86.50330
12.15000, 81.75891
12.16000, 79.09460
12.17000, 76.65503
12.18000, 77.99756
12.19000, 81.28992
12.20000, 82.57690
12.21000, 81.73792
12.22000, 77.77295
12.23000, 70.88391
12.24000, 63.89355
12.25000, 54.89319
12.26000, 50.12439
12.27000, 51.10010
12.28000, 52.34985
12.29000, 54.67554
12.30000, 54.23682
12.31000, 52.38391
12.32000, 44.92737
12.33000, 44.38599
12.34000, 46.03662
12.35000, 46.95642
12.36000, 49.11951
12.37000, 52.55530
12.38000, 60.13879
12.39000, 74.18347
12.40000, 86.30640
12.41000, 95.50159
12.42000, 101.4590
12.43000, 104.6685
12.44000, 108.2903
12.45000, 109.4141
12.46000, 117.6499
12.47000, 129.1880
12.48000, 136.5781
12.49000, 141.9703
12.50000, 154.1146
12.51000, 164.4611
12.52000, 176.1595
12.53000, 194.2300
12.54000, 207.0325
12.55000, 217.0372
12.56000, 227.4838
12.57000, 234.5023
12.58000, 243.2029
12.59000, 249.5758
12.60000, 252.2412
12.61000, 252.9191
12.62000, 253.5288
12.63000, 254.8105
12.64000, 248.0746
12.65000, 237.2006
12.66000, 226.6785
12.67000, 216.4781
12.68000, 201.0198
12.69000, 187.0432
12.70000, 168.4587
12.71000, 151.3459
12.72000, 141.1649
12.73000, 128.9259
12.74000, 119.2186
12.75000, 110.1232
12.76000, 101.0394
12.77000, 84.92761
12.78000, 71.20752
12.79000, 59.22913
12.80000, 50.53247
12.81000, 40.65771
12.82000, 32.96448
12.83000, 28.57312
12.84000, 23.34326
12.85000, 19.83521
12.86000, 12.98901
12.87000, 4.014282
12.88000, 4.831299
12.89000, 4.989990
12.90000, 3.210205
12.91000, 3.722046
12.92000, 3.255493
12.93000, 2.690674
12.94000, 6.377197
12.95000, 6.235474
12.96000, 4.915283
12.97000, 5.736694
12.98000, 6.029663
12.99000, 6.654053
13.00000, 4.040039
13.01000, 3.847412
13.02000, 0.9262700
13.03000, 4.573303
13.04000, 5.793274
13.05000, 4.414307
13.06000, 1.965759
13.07000, 1.853271
13.08000, 8.213806
13.09000, 10.65588
13.10000, 7.749146
13.11000, 7.253906
13.12000, 5.830139
13.13000, 5.077637
13.14000, 8.286499
13.15000, 9.097046
13.16000, 6.169556
13.17000, 5.073730
13.18000, 3.680725
13.19000, 7.091370
13.20000, 8.895325
13.21000, 11.07129
13.22000, 10.80865
13.23000, 6.917236
13.24000, 5.837097
13.25000, 3.958252
13.26000, 9.9365003E-02
13.27000, 0.3740230
13.28000, 3.638672
13.29000, 1.394531
13.30000, 2.148315
13.31000, 2.161255
13.32000, 2.474121
13.33000, 4.566711
13.34000, 3.810425
13.35000, 2.454956
13.36000, 5.920288
13.37000, 11.49670
13.38000, 9.634155
13.39000, 9.033386
13.40000, 4.843811
13.41000, 1.985779
13.42000, 1.759338
13.43000, 4.562500
13.44000, 7.434448
13.45000, 2.220703
13.46000, 0.9300540
13.47000, 1.879761
13.48000, 3.673645
13.49000, 9.627319
13.50000, 9.606812
13.51000, 10.25104
13.52000, 8.854797
13.53000, 3.034180
13.54000, 2.784180
13.55000, 5.380798
13.56000, 3.786804
13.57000, 4.942017
13.58000, 4.247559
13.59000, 5.988342
13.60000, 10.43658
13.61000, 16.59033
13.62000, 19.36859
13.63000, 16.94733
13.64000, 15.57739
13.65000, 16.42102
13.66000, 16.96106
13.67000, 19.81256
13.68000, 26.89136
13.69000, 36.11469
13.70000, 43.78839
13.71000, 48.07251
13.72000, 57.46704
13.73000, 73.01184
13.74000, 82.53705
13.75000, 91.56268
13.76000, 104.2686
13.77000, 117.7249
13.78000, 139.1314
13.79000, 156.0184
13.80000, 177.4256
13.81000, 201.7932
13.82000, 230.2810
13.83000, 256.6492
13.84000, 281.0874
13.85000, 299.1562
13.86000, 315.4950
13.87000, 335.6342
13.88000, 355.3536
13.89000, 371.4531
13.90000, 388.0027
13.91000, 403.2629
13.92000, 411.6231
13.93000, 413.1335
13.94000, 419.4641
13.95000, 424.7249
13.96000, 427.9758
13.97000, 432.1869
13.98000, 430.2881
13.99000, 426.3196
14.00000, 418.5011
14.01000, 409.1025
14.02000, 396.4645
14.03000, 384.5164
14.04000, 364.8384
14.05000, 342.3505
14.06000, 320.5926
14.07000, 293.4850
14.08000, 268.2272
14.09000, 244.2596
14.10000, 217.7922
14.11000, 207.2048
14.12000, 202.0275
14.13000, 188.2801
14.14000, 170.3129
14.15000, 162.1558
14.16000, 157.8486
14.17000, 146.8013
14.18000, 140.7642
14.19000, 136.1472
14.20000, 135.0300
14.21000, 130.6630
14.22000, 122.6059
14.23000, 115.4595
14.24000, 113.4954
14.25000, 110.7249
14.26000, 107.9396
14.27000, 108.3226
14.28000, 113.8956
14.29000, 117.7086
14.30000, 120.7316
14.31000, 125.1847
14.32000, 127.0778
14.33000, 127.3309
14.34000, 125.8940
14.35000, 126.6472
14.36000, 132.5804
14.37000, 133.4838
14.38000, 129.7770
14.39000, 127.2504
14.40000, 120.8936
14.41000, 118.5269
14.42000, 115.9600
14.43000, 107.2719
14.44000, 104.7996
14.45000, 102.4984
14.46000, 99.87292
14.47000, 93.86591
14.48000, 87.43878
14.49000, 81.09167
14.50000, 73.46320
14.51000, 67.24249
14.52000, 58.27325
14.53000, 43.90680
14.54000, 39.22906
14.55000, 34.36255
14.56000, 32.57593
14.57000, 30.45422
14.58000, 25.25549
14.59000, 20.14569
14.60000, 19.38483
14.61000, 12.99591
14.62000, 9.252991
14.63000, 5.405579
14.64000, 0.4503170
14.65000, 0.5189820
14.66000, 4.341858
14.67000, 11.00830
14.68000, 10.18805
14.69000, 10.66437
14.70000, 12.48041
14.71000, 9.295532
14.72000, 7.500854
14.73000, 7.472412
14.74000, 6.061646
14.75000, 4.0894002E-02
14.76000, 2.589539
14.77000, 4.921509
14.78000, 7.839294
14.79000, 10.57489
14.80000, 9.411377
14.81000, 9.689087
14.82000, 9.868652
14.83000, 10.65924
14.84000, 12.74579
14.85000, 10.72742
14.86000, 10.30322
14.87000, 10.63989
14.88000, 12.10449
14.89000, 15.25909
14.90000, 15.79669
14.91000, 15.23218
14.92000, 17.43567
14.93000, 17.77502
14.94000, 19.71320
14.95000, 24.29425
14.96000, 31.15613
14.97000, 40.96899
14.98000, 54.60461
14.99000, 61.01111
15.00000, 66.05847
15.01000, 75.76270
15.02000, 81.78680
15.03000, 84.20483
15.04000, 92.03766
15.05000, 101.8522
15.06000, 110.4188
15.07000, 118.3611
15.08000, 126.6644
15.09000, 129.3175
15.10000, 129.5004
15.11000, 136.3532
15.12000, 142.1857
15.13000, 146.6583
15.14000, 155.9706
15.15000, 161.8630
15.16000, 164.5054
15.17000, 170.9877
15.18000, 177.3200
15.19000, 182.0721
15.20000, 181.7544
15.21000, 187.0568
15.22000, 192.6592
15.23000, 190.8116
15.24000, 186.3239
15.25000, 184.9460
15.26000, 177.7283
15.27000, 170.4803
15.28000, 161.3225
15.29000, 149.9747
15.30000, 142.9380
15.31000, 141.1227
15.32000, 135.0980
15.33000, 128.9293
15.34000, 122.4395
15.35000, 115.5315
15.36000, 102.2473
15.37000, 89.00916
15.38000, 78.60175
15.39000, 69.44611
15.40000, 57.73035
15.41000, 50.33545
15.42000, 48.17358
15.43000, 44.65588
15.44000, 40.15833
15.45000, 38.33746
15.46000, 32.71295
15.47000, 26.41217
15.48000, 21.83551
15.49000, 18.60980
15.50000, 17.55310
15.51000, 17.66998
15.52000, 19.05920
15.53000, 16.41760
15.54000, 14.67725
15.55000, 15.64270
15.56000, 17.81268
15.57000, 18.84460
15.58000, 16.56537
15.59000, 11.41504
15.60000, 8.540649
15.61000, 6.017090
15.62000, 3.245422
15.63000, 4.139648
15.64000, 3.903687
15.65000, 5.071655
15.66000, 6.338623
15.67000, 7.031372
15.68000, 11.16699
15.69000, 14.17535
15.70000, 15.05615
15.71000, 13.38940
15.72000, 9.225159
15.73000, 5.241821
15.74000, 4.815247
15.75000, 8.316223
15.76000, 10.08002
15.77000, 14.27661
15.78000, 24.11188
15.79000, 31.05682
15.80000, 36.69562
15.81000, 40.72375
15.82000, 40.46259
15.83000, 46.91876
15.84000, 57.11652
15.85000, 69.71582
15.86000, 82.33008
15.87000, 95.67084
15.88000, 102.2714
15.89000, 113.4911
15.90000, 131.1205
15.91000, 144.4692
15.92000, 159.4145
15.93000, 174.1545
15.94000, 184.0584
15.95000, 193.9565
15.96000, 208.6589
15.97000, 226.3900
15.98000, 237.9829
15.99000, 249.5461
16.00000, 257.2881
16.01000, 259.7393
16.02000, 262.0797
16.03000, 264.2417
16.04000, 267.3895
16.05000, 272.4568
16.06000, 268.3715
16.07000, 255.8712
16.08000, 247.2843
16.09000, 240.7087
16.10000, 225.4594
16.11000, 209.2255
16.12000, 196.1910
16.13000, 176.8443
16.14000, 154.8625
16.15000, 138.9727
16.16000, 125.2446
16.17000, 107.5455
16.18000, 93.05414
16.19000, 81.00873
16.20000, 68.67725
16.21000, 61.24646
16.22000, 57.06049
16.23000, 47.28046
16.24000, 39.42517
16.25000, 36.56586
16.26000, 31.63428
16.27000, 23.73846
16.28000, 20.67749
16.29000, 23.81030
16.30000, 29.30603
16.31000, 32.12946
16.32000, 37.50073
16.33000, 43.48700
16.34000, 45.19305
16.35000, 46.90424
16.36000, 48.82697
16.37000, 58.72345
16.38000, 73.10144
16.39000, 83.64563
16.40000, 94.84698
16.41000, 101.4431
16.42000, 113.0773
16.43000, 133.9516
16.44000, 161.1738
16.45000, 187.3713
16.46000, 213.4180
16.47000, 242.8109
16.48000, 273.4806
16.49000, 308.9733
16.50000, 347.4034
16.51000, 382.0162
16.52000, 417.1217
16.53000, 449.5748
16.54000, 475.3370
16.55000, 498.3152
16.56000, 526.3748
16.57000, 549.1389
16.58000, 569.9630
16.59000, 586.6691
16.60000, 596.8415
16.61000, 602.9677
16.62000, 606.5691
16.63000, 602.0796
16.64000, 596.1873
16.65000, 584.6287
16.66000, 568.5400
16.67000, 547.0085
16.68000, 528.1143
16.69000, 509.9886
16.70000, 488.2588
16.71000, 464.7534
16.72000, 438.0085
16.73000, 409.3643
16.74000, 381.8082
16.75000, 354.4271
16.76000, 329.1393
16.77000, 302.0394
16.78000, 276.1190
16.79000, 252.4369
16.80000, 228.0703
16.81000, 206.8522
16.82000, 191.3588
16.83000, 175.3802
16.84000, 156.3410
16.85000, 136.2332
16.86000, 116.8713
16.87000, 97.70343
16.88000, 80.04352
16.89000, 66.51202
16.90000, 49.65338
16.91000, 33.90509
16.92000, 28.78430
16.93000, 27.30444
16.94000, 26.54352
16.95000, 19.63739
16.96000, 12.68250
16.97000, 9.165833
16.98000, 5.296265
16.99000, 3.145813
17.00000, 2.183350
17.01000, 1.522583
17.02000, 5.405151
17.03000, 4.428833
17.04000, 2.9846000E-02
17.05000, 0.5660400
17.06000, 3.045898
17.07000, 4.496826
17.08000, 0.6728520
17.09000, 2.659058
17.10000, 2.186829
17.11000, 3.562622
17.12000, 2.080017
17.13000, 0.5550540
17.14000, 0.5444340
17.15000, 1.279358
17.16000, 1.242188
17.17000, 2.752991
17.18000, 2.756531
17.19000, 0.4649660
17.20000, 0.6281130
17.21000, 3.636841
17.22000, 3.341370
17.23000, 8.4716998E-02
17.24000, 0.1606450
17.25000, 2.861206
17.26000, 4.121460
17.27000, 3.375366
17.28000, 1.803284
17.29000, 4.051697
17.30000, 7.610962
17.31000, 8.542053
17.32000, 11.43713
17.33000, 15.12604
17.34000, 18.28180
17.35000, 20.20044
17.36000, 16.32690
17.37000, 15.39728
17.38000, 16.16455
17.39000, 18.34766
17.40000, 23.46558
17.41000, 26.77625
17.42000, 25.01691
17.43000, 23.14429
17.44000, 23.76349
17.45000, 20.66254
17.46000, 21.10535
17.47000, 17.98407
17.48000, 18.59741
17.49000, 17.36871
17.50000, 10.81677
17.51000, 7.708557
17.52000, 4.873047
17.53000, 1.807190
17.54000, 3.740723
17.55000, 2.977783
17.56000, 4.440308
17.57000, 3.100464
17.58000, 0.1029660
17.59000, 1.438782
17.60000, 1.486755
17.61000, 3.517212
17.62000, 7.174072
17.63000, 6.032654
17.64000, 0.9238280
17.65000, 1.395447
17.66000, 4.658447
17.67000, 1.171936
17.68000, 3.635254
17.69000, 4.378479
17.70000, 1.540100
17.71000, 2.890381
17.72000, 6.932129
17.73000, 7.082458
17.74000, 8.047363
17.75000, 7.661987
17.76000, 8.934265
17.77000, 11.36316
17.78000, 10.84576
17.79000, 6.830933
17.80000, 1.562439
17.81000, 0.3975830
17.82000, 1.171631
17.83000, 1.605042
17.84000, 2.923340
17.85000, 4.984192
17.86000, 7.796570
17.87000, 5.995850
17.88000, 3.100342
17.89000, 4.786621
17.90000, 7.881897
17.91000, 7.407898
17.92000, 3.756836
17.93000, 1.975098
17.94000, 0.9354250
17.95000, 2.964417
17.96000, 6.425171
17.97000, 6.478455
17.98000, 3.335083
17.99000, 5.266357
18.00000, 5.968994
18.01000, 4.309021
18.02000, 3.658325
18.03000, 1.080933
18.04000, 6.383850
18.05000, 10.72900
18.06000, 7.472656
18.07000, 7.580322
18.08000, 5.941467
18.09000, 4.630127
18.10000, 4.884583
18.11000, 7.982178
18.12000, 9.031372
18.13000, 4.395874
18.14000, 6.113647
18.15000, 11.37671
18.16000, 13.76318
18.17000, 15.37915
18.18000, 15.10071
18.19000, 12.93768
18.20000, 9.206299
18.21000, 8.891541
18.22000, 13.00836
18.23000, 16.68738
18.24000, 17.58716
18.25000, 20.72223
18.26000, 25.71777
18.27000, 27.32605
18.28000, 31.85529
18.29000, 40.03223
18.30000, 46.52850
18.31000, 49.93854
18.32000, 51.08795
18.33000, 50.38983
18.34000, 50.11475
18.35000, 52.19244
18.36000, 55.40076
18.37000, 55.67584
18.38000, 54.55914
18.39000, 56.90271
18.40000, 56.58466
18.41000, 58.38794
18.42000, 60.56091
18.43000, 60.19818
18.44000, 57.79968
18.45000, 59.30396
18.46000, 60.82965
18.47000, 59.99139
18.48000, 59.49298
18.49000, 58.71765
18.50000, 53.92145
18.51000, 47.59619
18.52000, 46.34741
18.53000, 45.05505
18.54000, 47.24921
18.55000, 49.83484
18.56000, 52.39703
18.57000, 54.03259
18.58000, 58.61664
18.59000, 59.24927
18.60000, 55.23132
18.61000, 50.77191
18.62000, 45.49493
18.63000, 41.09052
18.64000, 40.10553
18.65000, 42.84613
18.66000, 43.05426
18.67000, 42.89392
18.68000, 45.61304
18.69000, 48.72162
18.70000, 51.89069
18.71000, 52.65729
18.72000, 50.42426
18.73000, 50.37366
18.74000, 48.75922
18.75000, 48.59961
18.76000, 47.91748
18.77000, 48.12500
18.78000, 51.23181
18.79000, 50.89856
18.80000, 47.65485
18.81000, 45.33655
18.82000, 45.24847
18.83000, 42.92505
18.84000, 36.48175
18.85000, 32.19714
18.86000, 30.60724
18.87000, 28.50085
18.88000, 25.16168
18.89000, 26.54730
18.90000, 31.24243
18.91000, 30.54120
18.92000, 26.46765
18.93000, 27.12738
18.94000, 26.61475
18.95000, 26.38647
18.96000, 23.62195
18.97000, 21.99280
18.98000, 16.48059
18.99000, 11.32495
19.00000, 7.125305
19.01000, 1.859009
19.02000, 8.0200002E-02
19.03000, 3.654114
19.04000, 5.499390
19.05000, 7.992310
19.06000, 9.662598
19.07000, 9.612732
19.08000, 11.73761
19.09000, 15.21265
19.10000, 15.70325
19.11000, 12.98395
19.12000, 8.563416
19.13000, 6.351685
19.14000, 3.896362
19.15000, 5.421509
19.16000, 9.438538
19.17000, 9.923096
19.18000, 12.42798
19.19000, 16.43048
19.20000, 17.87439
19.21000, 15.24701
19.22000, 14.46283
19.23000, 10.07147
19.24000, 7.468506
19.25000, 8.663269
19.26000, 7.529846
19.27000, 5.328430
19.28000, 4.797363
19.29000, 8.016418
19.30000, 11.61292
19.31000, 17.20618
19.32000, 23.89642
19.33000, 26.63501
19.34000, 28.72449
19.35000, 36.03265
19.36000, 44.18848
19.37000, 49.39508
19.38000, 55.03052
19.39000, 66.60297
19.40000, 76.53680
19.41000, 76.83032
19.42000, 77.47394
19.43000, 82.55353
19.44000, 87.80292
19.45000, 87.89960
19.46000, 91.64398
19.47000, 97.44543
19.48000, 97.86700
19.49000, 98.06055
19.50000, 101.6060
19.51000, 102.7674
19.52000, 106.9837
19.53000, 105.3591
19.54000, 102.5198
19.55000, 100.7125
19.56000, 101.5261
19.57000, 104.3158
19.58000, 101.3574
19.59000, 93.71100
19.60000, 94.00873
19.61000, 92.09247
19.62000, 84.60425
19.63000, 79.05310
19.64000, 77.35107
19.65000, 76.40997
19.66000, 75.24445
19.67000, 72.92017
19.68000, 73.50146
19.69000, 72.40692
19.70000, 72.38739
19.71000, 72.34576
19.72000, 66.99976
19.73000, 65.99084
19.74000, 72.67786
19.75000, 74.99921
19.76000, 73.50677
19.77000, 70.66925
19.78000, 71.26587
19.79000, 73.41541
19.80000, 76.24194
19.81000, 76.23462
19.82000, 72.45038
19.83000, 70.22516
19.84000, 65.28094
19.85000, 63.70581
19.86000, 58.51874
19.87000, 47.61963
19.88000, 41.28052
19.89000, 33.81140
19.90000, 28.87842
19.91000, 26.22144
19.92000, 26.59363
19.93000, 23.76300
19.94000, 20.21362
19.95000, 19.50751
19.96000, 15.69556
19.97000, 13.81982
19.98000, 13.04755
19.99000, 10.42560
20.00000, 10.58588
20.01000, 7.435425
20.02000, 5.699036
20.03000, 5.678650
20.04000, 3.337402
20.05000, 11.03424
20.06000, 18.02631
20.07000, 18.21185
20.08000, 17.01672
20.09000, 13.99634
20.10000, 12.17609
20.11000, 12.72009
20.12000, 8.715332
20.13000, 3.857727
20.14000, 3.725098
20.15000, 6.066467
20.16000, 9.815918
20.17000, 10.68445
20.18000, 6.610229
20.19000, 4.538574
20.20000, 3.283447
20.21000, 0.5321040
20.22000, 1.155334
20.23000, 2.929810
20.24000, 5.266296
20.25000, 2.166016
20.26000, 0.3194580
20.27000, 5.039368
20.28000, 5.963684
20.29000, 8.689026
20.30000, 11.43781
20.31000, 7.896790
20.32000, 2.549500
20.33000, 0.7305910
20.34000, 3.494324
20.35000, 8.529785
20.36000, 12.17938
20.37000, 14.26050
20.38000, 17.38257
20.39000, 19.86194
20.40000, 21.43481
20.41000, 22.13202
20.42000, 23.95416
20.43000, 25.82507
20.44000, 30.69788
20.45000, 28.05597
20.46000, 24.37457
20.47000, 23.08057
20.48000, 24.51843
20.49000, 28.06738
20.50000, 29.14160
20.51000, 31.62305
20.52000, 37.01324
20.53000, 41.00201
20.54000, 43.50446
20.55000, 46.11230
20.56000, 49.24847
20.57000, 52.15710
20.58000, 55.16003
20.59000, 59.29181
20.60000, 59.77747
20.61000, 60.05054
20.62000, 60.35529
20.63000, 64.12329
20.64000, 65.98267
20.65000, 71.61609
20.66000, 74.67920
20.67000, 74.76282
20.68000, 76.53064
20.69000, 71.64899
20.70000, 68.14368
20.71000, 64.99377
20.72000, 61.45233
20.73000, 57.52118
20.74000, 55.63953
20.75000, 55.44025
20.76000, 55.74323
20.77000, 58.42273
20.78000, 59.02924
20.79000, 61.62195
20.80000, 64.10864
20.81000, 64.85779
20.82000, 59.78125
20.83000, 56.06128
20.84000, 54.57605
20.85000, 56.93890
20.86000, 61.50684
20.87000, 58.06665
20.88000, 52.31561
20.89000, 52.98645
20.90000, 51.51245
20.91000, 51.23523
20.92000, 52.31567
20.93000, 50.29926
20.94000, 50.30908
20.95000, 49.48273
20.96000, 45.00854
20.97000, 44.41547
20.98000, 46.29205
20.99000, 47.89093
21.00000, 45.75031
21.01000, 41.63232
21.02000, 40.91376
21.03000, 38.65918
21.04000, 34.85870
21.05000, 36.68182
21.06000, 36.44708
21.07000, 31.01471
21.08000, 25.08789
21.09000, 25.98584
21.10000, 30.44354
21.11000, 31.11230
21.12000, 27.88489
21.13000, 27.53625
21.14000, 26.58447
21.15000, 26.78094
21.16000, 30.22961
21.17000, 30.42017
21.18000, 35.90131
21.19000, 43.57257
21.20000, 43.87170
21.21000, 43.64008
21.22000, 46.78766
21.23000, 48.64764
21.24000, 50.71515
21.25000, 53.30634
21.26000, 56.23798
21.27000, 59.99200
21.28000, 64.78656
21.29000, 67.53156
21.30000, 65.10199
21.31000, 68.11432
21.32000, 74.29968
21.33000, 76.49695
21.34000, 74.45081
21.35000, 72.29858
21.36000, 66.96600
21.37000, 60.41937
21.38000, 56.61224
21.39000, 57.98492
21.40000, 56.67102
21.41000, 50.90918
21.42000, 48.03912
21.43000, 45.42529
21.44000, 40.26135
21.45000, 38.02167
21.46000, 36.58527
21.47000, 36.73010
21.48000, 39.01758
21.49000, 36.59741
21.50000, 34.69452
21.51000, 30.83661
21.52000, 29.27435
21.53000, 27.67139
21.54000, 22.85498
21.55000, 18.53143
21.56000, 14.16364
21.57000, 10.40155
21.58000, 8.552917
21.59000, 4.938965
21.60000, 0.6655270
21.61000, 3.188416
21.62000, 6.443726
21.63000, 4.596680
21.64000, 3.426270
21.65000, 3.473450
21.66000, 4.609070
21.67000, 4.722351
21.68000, 1.810364
21.69000, 1.868835
21.70000, 3.050659
21.71000, 3.204041
21.72000, 3.423828
21.73000, 6.894104
21.74000, 7.056946
21.75000, 6.031311
21.76000, 7.113281
21.77000, 5.226746
21.78000, 0.6702880
21.79000, 0.6022950
21.80000, 1.403809
21.81000, 5.877258
21.82000, 8.307129
21.83000, 6.788635
21.84000, 5.725708
21.85000, 7.727295
21.86000, 9.629395
21.87000, 9.992065
21.88000, 11.40833
21.89000, 12.50012
21.90000, 12.44049
21.91000, 10.68433
21.92000, 11.58679
21.93000, 12.60571
21.94000, 13.93915
21.95000, 11.32727
21.96000, 7.668945
21.97000, 4.847046
21.98000, 5.359680
21.99000, 6.833862
22.00000, 7.842529
22.01000, 6.607788
22.02000, 2.051575
22.03000, 2.918152
22.04000, 5.011230
22.05000, 4.511658
22.06000, 1.634155
22.07000, 0.7787480
22.08000, 3.728088
22.09000, 1.372864
22.10000, 1.350037
22.11000, 2.0447001E-02
22.12000, 1.910583
22.13000, 0.8240360
22.14000, 3.937866
22.15000, 3.395569
22.16000, 1.377380
22.17000, 5.098694
22.18000, 3.164429
22.19000, 1.433777
22.20000, 0.6144410
22.21000, 1.784424
22.22000, 3.261902
22.23000, 3.782837
22.24000, 5.128235
22.25000, 8.522278
22.26000, 13.60675
22.27000, 18.29364
22.28000, 19.90576
22.29000, 23.01709
22.30000, 24.89337
22.31000, 28.08093
22.32000, 31.52972
22.33000, 32.14709
22.34000, 31.56903
22.35000, 32.13733
22.36000, 32.39691
22.37000, 31.66498
22.38000, 35.25592
22.39000, 39.71655
22.40000, 35.03973
22.41000, 31.39923
22.42000, 32.31757
22.43000, 31.57745
22.44000, 32.08881
22.45000, 37.92786
22.46000, 42.27057
22.47000, 46.32159
22.48000, 47.42236
22.49000, 45.47803
22.50000, 43.51129
22.51000, 42.58112
22.52000, 44.48810
22.53000, 44.14899
22.54000, 44.29773
22.55000, 42.87744
22.56000, 41.23804
22.57000, 42.43530
22.58000, 44.79401
22.59000, 46.62506
22.60000, 47.81653
22.61000, 43.86066
22.62000, 40.06567
22.63000, 38.02924
22.64000, 38.08990
22.65000, 42.99084
22.66000, 47.09662
22.67000, 49.72534
22.68000, 53.72845
22.69000, 55.08746
22.70000, 58.41125
22.71000, 63.84473
22.72000, 65.18762
22.73000, 67.43317
22.74000, 70.44598
22.75000, 72.37213
22.76000, 70.47571
22.77000, 72.01953
22.78000, 75.31262
22.79000, 79.48193
22.80000, 83.77466
22.81000, 90.92328
22.82000, 98.82257
22.83000, 102.8018
22.84000, 103.4225
22.85000, 106.8628
22.86000, 109.3991
22.87000, 111.8723
22.88000, 113.9166
22.89000, 113.5765
22.90000, 113.1928
22.91000, 116.3500
22.92000, 120.1176
22.93000, 121.6372
22.94000, 123.7211
22.95000, 128.6314
22.96000, 132.0319
22.97000, 133.3539
22.98000, 137.4787
22.99000, 143.3113
23.00000, 146.8003
23.01000, 151.0984
23.02000, 149.1710
23.03000, 150.3618
23.04000, 157.5204
23.05000, 165.5099
23.06000, 171.0629
23.07000, 176.0561
23.08000, 182.9036
23.09000, 192.6716
23.10000, 199.1707
23.11000, 202.3984
23.12000, 206.2844
23.13000, 210.6637
23.14000, 215.7933
23.15000, 213.7692
23.16000, 204.7407
23.17000, 202.9818
23.18000, 203.4085
23.19000, 197.0139
23.20000, 187.8668
23.21000, 178.2040
23.22000, 172.7175
23.23000, 167.7839
23.24000, 156.5901
23.25000, 145.5950
23.26000, 138.7050
23.27000, 129.2875
23.28000, 117.7049
23.29000, 107.0220
23.30000, 100.1863
23.31000, 97.41553
23.32000, 86.91553
23.33000, 78.71014
23.34000, 70.82477
23.35000, 62.05798
23.36000, 56.25702
23.37000, 51.80920
23.38000, 47.71594
23.39000, 44.00311
23.40000, 35.27545
23.41000, 28.66431
23.42000, 23.57300
23.43000, 17.30548
23.44000, 9.440186
23.45000, 5.636658
23.46000, 0.7267460
23.47000, 3.509216
23.48000, 3.687317
23.49000, 4.832642
23.50000, 3.770935
23.51000, 3.951477
23.52000, 7.488403
23.53000, 9.175598
23.54000, 5.608826
23.55000, 0.6863400
23.56000, 1.395508
23.57000, 1.324280
23.58000, 1.171936
23.59000, 3.011475
23.60000, 6.056030
23.61000, 8.253723
23.62000, 9.736206
23.63000, 8.504089
23.64000, 4.092896
23.65000, 3.010376
23.66000, 1.720398
23.67000, 2.688354
23.68000, 5.280884
23.69000, 0.7811280
23.70000, 1.150513
23.71000, 8.9782998E-02
23.72000, 0.5945430
23.73000, 0.2351070
23.74000, 1.189148
23.75000, 3.829163
23.76000, 7.574707
23.77000, 9.003113
23.78000, 13.60504
23.79000, 17.88477
23.80000, 22.69812
23.81000, 27.35315
23.82000, 36.02600
23.83000, 48.37744
23.84000, 56.30463
23.85000, 59.43353
23.86000, 67.08917
23.87000, 78.12347
23.88000, 81.39246
23.89000, 84.60114
23.90000, 92.54950
23.91000, 103.7587
23.92000, 108.1284
23.93000, 109.8430
23.94000, 111.7040
23.95000, 115.8669
23.96000, 123.9285
23.97000, 123.5458
23.98000, 119.0558
23.99000, 120.8266
24.00000, 124.0833
24.01000, 122.0717
24.02000, 121.8298
24.03000, 124.7618
24.04000, 119.9225
24.05000, 113.5641
24.06000, 107.4955
24.07000, 102.9457
24.08000, 99.85571
24.09000, 98.02472
24.10000, 96.29346
24.11000, 95.89813
24.12000, 92.50659
24.13000, 89.68591
24.14000, 79.58917
24.15000, 74.81415
24.16000, 76.45392
24.17000, 74.79865
24.18000, 67.97046
24.19000, 66.53650
24.20000, 71.09436
24.21000, 72.92413
24.22000, 68.50690
24.23000, 64.03040
24.24000, 61.90283
24.25000, 60.60217
24.26000, 57.94055
24.27000, 58.10266
24.28000, 60.58783
24.29000, 63.83386
24.30000, 65.75793
24.31000, 64.31976
24.32000, 60.07764
24.33000, 59.61548
24.34000, 56.93524
24.35000, 53.31195
24.36000, 52.69574
24.37000, 52.50549
24.38000, 54.05017
24.39000, 53.33392
24.40000, 53.18866
24.41000, 52.05438
24.42000, 50.78113
24.43000, 48.00385
24.44000, 47.75006
24.45000, 54.57257
24.46000, 59.35675
24.47000, 57.75409
24.48000, 59.69647
24.49000, 63.86292
24.50000, 67.61713
24.51000, 67.80841
24.52000, 61.28375
24.53000, 57.38159
24.54000, 60.29376
24.55000, 64.18103
24.56000, 62.39551
24.57000, 58.88696
24.58000, 57.47864
24.59000, 53.94153
24.60000, 51.88458
24.61000, 48.55292
24.62000, 46.21228
24.63000, 45.04395
24.64000, 48.03870
24.65000, 51.76367
24.66000, 50.76801
24.67000, 47.38177
24.68000, 45.12909
24.69000, 44.48608
24.70000, 39.22253
24.71000, 36.04669
24.72000, 32.26880
24.73000, 28.30530
24.74000, 19.88300
24.75000, 15.02118
24.76000, 8.589722
24.77000, 5.409180
24.78000, 0.8477170
24.79000, 2.738342
24.80000, 3.451355
24.81000, 0.1173100
24.82000, 1.178345
24.83000, 5.969971
24.84000, 11.80225
24.85000, 7.776367
24.86000, 2.773193
24.87000, 4.938477
24.88000, 8.546692
24.89000, 6.174072
24.90000, 2.699219
24.91000, 7.000549
24.92000, 8.732544
24.93000, 11.61743
24.94000, 11.47540
24.95000, 7.632385
24.96000, 9.042603
24.97000, 8.272339
24.98000, 9.250793
24.99000, 8.136719
25.00000, 10.52740
25.01000, 10.63477
25.02000, 11.62061
25.03000, 19.78613
25.04000, 27.99329
25.05000, 32.33710
25.06000, 39.24164
25.07000, 43.48871
25.08000, 47.43445
25.09000, 50.14386
25.10000, 56.28503
25.11000, 64.46973
25.12000, 71.83813
25.13000, 80.48224
25.14000, 88.55511
25.15000, 94.75446
25.16000, 102.8276
25.17000, 110.9565
25.18000, 118.6160
25.19000, 123.2873
25.20000, 131.7282
25.21000, 135.8268
25.22000, 141.0341
25.23000, 146.2911
25.24000, 149.0869
25.25000, 151.2473
25.26000, 156.3234
25.27000, 154.5153
25.28000, 150.2149
25.29000, 145.4622
25.30000, 142.8013
25.31000, 142.4450
25.32000, 143.3596
25.33000, 143.9758
25.34000, 138.2509
25.35000, 130.7416
25.36000, 127.5630
25.37000, 126.9363
25.38000, 125.7112
25.39000, 122.8419
25.40000, 121.2273
25.41000, 121.0224
25.42000, 124.0684
25.43000, 122.2911
25.44000, 118.7175
25.45000, 116.3426
25.46000, 116.5075
25.47000, 117.5882
25.48000, 116.1805
25.49000, 113.2988
25.50000, 115.1387
25.51000, 114.3245
25.52000, 110.3610
25.53000, 108.5272
25.54000, 103.1373
25.55000, 96.80096
25.56000, 96.69366
25.57000, 96.24896
25.58000, 95.24707
25.59000, 89.13196
25.60000, 88.87463
25.61000, 93.21600
25.62000, 93.70325
25.63000, 91.11829
25.64000, 90.78003
25.65000, 89.48962
25.66000, 84.09204
25.67000, 74.35712
25.68000, 69.44299
25.69000, 64.11072
25.70000, 61.26526
25.71000, 54.81061
25.72000, 52.72955
25.73000, 54.40546
25.74000, 51.43610
25.75000, 48.79163
25.76000, 48.72876
25.77000, 42.77069
25.78000, 38.77856
25.79000, 37.99915
25.80000, 34.34540
25.81000, 36.77655
25.82000, 43.00348
25.83000, 45.83917
25.84000, 48.48163
25.85000, 52.62384
25.86000, 56.14020
25.87000, 61.63855
25.88000, 65.97223
25.89000, 69.98633
25.90000, 69.75470
25.91000, 65.74225
25.92000, 67.10303
25.93000, 65.50446
25.94000, 61.96149
25.95000, 59.66400
25.96000, 59.06525
25.97000, 61.20215
25.98000, 57.02850
25.99000, 57.28925
26.00000, 60.86163
26.01000, 66.22235
26.02000, 68.59790
26.03000, 65.54053
26.04000, 61.94067
26.05000, 59.85034
26.06000, 54.23993
26.07000, 48.18738
26.08000, 41.92712
26.09000, 37.87262
26.10000, 37.04016
26.11000, 36.72668
26.12000, 38.10016
26.13000, 36.08447
26.14000, 32.24164
26.15000, 29.55640
26.16000, 28.02155
26.17000, 27.21417
26.18000, 24.78430
26.19000, 23.96289
26.20000, 28.66187
26.21000, 25.32941
26.22000, 19.91937
26.23000, 13.18182
26.24000, 8.870667
26.25000, 8.597961
26.26000, 11.75702
26.27000, 11.44305
26.28000, 6.462402
26.29000, 5.404358
26.30000, 8.943542
26.31000, 13.68323
26.32000, 17.85327
26.33000, 17.52380
26.34000, 12.74677
26.35000, 5.430115
26.36000, 2.771851
26.37000, 5.004028
26.38000, 3.398499
26.39000, 1.772339
26.40000, 2.119629
26.41000, 7.390320
26.42000, 13.66431
26.43000, 17.45569
26.44000, 18.78247
26.45000, 24.40350
26.46000, 31.26300
26.47000, 34.24683
26.48000, 31.97797
26.49000, 30.97546
26.50000, 28.51831
26.51000, 27.88739
26.52000, 26.66089
26.53000, 20.94672
26.54000, 20.42780
26.55000, 23.19415
26.56000, 27.26190
26.57000, 31.89490
26.58000, 32.05121
26.59000, 30.80487
26.60000, 30.43671
26.61000, 32.59180
26.62000, 31.52936
26.63000, 29.92505
26.64000, 33.01691
26.65000, 38.59021
26.66000, 37.66760
26.67000, 37.55145
26.68000, 37.10730
26.69000, 37.41852
26.70000, 39.93591
26.71000, 41.29462
26.72000, 38.60748
26.73000, 39.75861
26.74000, 40.08789
26.75000, 42.68842
26.76000, 44.78113
26.77000, 43.33099
26.78000, 42.80219
26.79000, 46.36743
26.80000, 46.57886
26.81000, 42.40564
26.82000, 41.46783
26.83000, 42.12817
26.84000, 37.87250
26.85000, 40.11145
26.86000, 38.55487
26.87000, 36.11060
26.88000, 32.76959
26.89000, 36.39563
26.90000, 43.81689
26.91000, 42.43927
26.92000, 38.47571
26.93000, 39.31940
26.94000, 34.18927
26.95000, 32.43317
26.96000, 30.09613
26.97000, 26.40924
26.98000, 28.83875
26.99000, 33.49292
27.00000, 31.37628
27.01000, 31.29358
27.02000, 27.31897
27.03000, 29.69147
27.04000, 31.84698
27.05000, 33.15161
27.06000, 32.44733
27.07000, 32.01501
27.08000, 26.52069
27.09000, 26.96478
27.10000, 28.80737
27.11000, 28.72363
27.12000, 18.18909
27.13000, 10.31244
27.14000, 12.98584
27.15000, 12.82007
27.16000, 9.272278
27.17000, 6.838440
27.18000, 2.575012
27.19000, 2.949646
27.20000, 5.398010
27.21000, 6.684753
27.22000, 9.564148
27.23000, 11.73553
27.24000, 10.66754
27.25000, 9.253784
27.26000, 8.774536
27.27000, 6.979919
27.28000, 7.868774
27.29000, 6.304932
27.30000, 4.373596
27.31000, 0.6567990
27.32000, 4.402405
27.33000, 3.743408
27.34000, 4.122192
27.35000, 7.953735
27.36000, 8.674072
27.37000, 10.03412
27.38000, 14.98505
27.39000, 15.65674
27.40000, 14.96814
27.41000, 13.85938
27.42000, 16.83136
27.43000, 18.49896
27.44000, 19.12347
27.45000, 19.42035
27.46000, 22.82599
27.47000, 23.16071
27.48000, 19.04114
27.49000, 17.27423
27.50000, 17.19312
27.51000, 17.62769
27.52000, 18.66797
27.53000, 17.62891
27.54000, 12.22168
27.55000, 13.16809
27.56000, 12.21619
27.57000, 14.64600
27.58000, 21.26453
27.59000, 22.80762
27.60000, 29.19055
27.61000, 37.82507
27.62000, 43.45233
27.63000, 43.64520
27.64000, 45.16174
27.65000, 51.58508
27.66000, 59.00299
27.67000, 58.72858
27.68000, 55.55585
27.69000, 59.61273
27.70000, 60.52734
27.71000, 63.85248
27.72000, 68.84344
27.73000, 68.11700
27.74000, 67.96814
27.75000, 69.54889
27.76000, 68.36340
27.77000, 65.02747
27.78000, 63.57220
27.79000, 63.61255
27.80000, 64.54858
27.81000, 65.26520
27.82000, 66.95050
27.83000, 74.09534
27.84000, 80.86084
27.85000, 82.46893
27.86000, 80.58374
27.87000, 79.33405
27.88000, 80.22601
27.89000, 86.22455
27.90000, 90.55371
27.91000, 93.26349
27.92000, 97.11389
27.93000, 97.09192
27.94000, 100.6055
27.95000, 105.4827
27.96000, 105.8595
27.97000, 105.8148
27.98000, 108.5298
27.99000, 105.4374
28.00000, 99.51270
28.01000, 95.57550
28.02000, 94.56818
28.03000, 95.32794
28.04000, 94.23865
28.05000, 91.56488
28.06000, 88.01544
28.07000, 88.32434
28.08000, 86.57281
28.09000, 87.63562
28.10000, 89.31610
28.11000, 88.81897
28.12000, 84.00134
28.13000, 76.50018
28.14000, 74.77246
28.15000, 75.93427
28.16000, 72.16956
28.17000, 63.88531
28.18000, 58.48462
28.19000, 54.78033
28.20000, 54.91852
28.21000, 58.96710
28.22000, 60.20624
28.23000, 60.38770
28.24000, 56.95770
28.25000, 61.18018
28.26000, 62.50208
28.27000, 63.41644
28.28000, 63.72870
28.29000, 68.28558
28.30000, 70.88373
28.31000, 61.65503
28.32000, 51.69427
28.33000, 49.52924
28.34000, 46.34967
28.35000, 43.16754
28.36000, 38.08575
28.37000, 33.78064
28.38000, 29.85645
28.39000, 25.22516
28.40000, 19.31122
28.41000, 17.54254
28.42000, 13.70868
28.43000, 8.106140
28.44000, 4.873535
28.45000, 3.762573
28.46000, 0.6410520
28.47000, 6.734985
28.48000, 16.95245
28.49000, 17.24976
28.50000, 11.05499
28.51000, 12.05334
28.52000, 14.99872
28.53000, 10.73285
28.54000, 9.252686
28.55000, 10.32629
28.56000, 9.025635
28.57000, 12.28870
28.58000, 13.49750
28.59000, 11.79010
28.60000, 8.066406
28.61000, 2.982544
28.62000, 3.596375
28.63000, 5.190979
28.64000, 4.6999999E-03
28.65000, 1.165100
28.66000, 3.668152
28.67000, 4.323181
28.68000, 7.780090
28.69000, 15.29767
28.70000, 25.61499
28.71000, 31.18518
28.72000, 33.57007
28.73000, 33.73969
28.74000, 35.46014
28.75000, 39.06531
28.76000, 42.51428
28.77000, 44.85699
28.78000, 43.91656
28.79000, 46.72894
28.80000, 50.03302
28.81000, 51.27094
28.82000, 57.23767
28.83000, 64.53607
28.84000, 63.96948
28.85000, 62.15460
28.86000, 63.21539
28.87000, 61.38019
28.88000, 55.57361
28.89000, 52.81000
28.90000, 50.06616
28.91000, 44.22003
28.92000, 41.12177
28.93000, 36.59943
28.94000, 37.14081
28.95000, 38.68201
28.96000, 37.61902
28.97000, 37.35492
28.98000, 32.05060
28.99000, 24.99219
29.00000, 21.84259
29.01000, 19.82373
29.02000, 20.19879
29.03000, 20.10370
29.04000, 19.61249
29.05000, 19.66309
29.06000, 16.64746
29.07000, 12.99384
29.08000, 12.13898
29.09000, 12.81311
29.10000, 16.41797
29.11000, 12.33276
29.12000, 9.088440
29.13000, 7.924927
29.14000, 9.611389
29.15000, 12.64069
29.16000, 13.11780
29.17000, 5.178955
29.18000, 3.130859
29.19000, 0.3292240
29.20000, 4.107971
29.21000, 3.118713
29.22000, 2.459839
29.23000, 5.157532
29.24000, 4.000732
29.25000, 0.2778320
29.26000, 1.468933
29.27000, 7.214905
29.28000, 12.03259
29.29000, 10.43610
29.30000, 8.998535
29.31000, 12.56195
29.32000, 11.33234
29.33000, 7.897644
29.34000, 4.940918
29.35000, 1.211182
29.36000, 0.5457150
29.37000, 1.028259
29.38000, 3.262024
29.39000, 5.736511
29.40000, 7.212830
29.41000, 8.409180
29.42000, 6.270569
29.43000, 7.038818
29.44000, 7.611206
29.45000, 5.720642
29.46000, 1.451965
29.47000, 0.9826660
29.48000, 0.8850710
29.49000, 2.314270
29.50000, 0.1840210
29.51000, 0.4511110
29.52000, 2.806030
29.53000, 4.934082
29.54000, 2.856018
29.55000, 0.9971310
29.56000, 1.966675
29.57000, 4.880676
29.58000, 4.492371
29.59000, 1.647278
29.60000, 2.495728
29.61000, 5.431946
29.62000, 4.784302
29.63000, 4.773376
29.64000, 11.64282
29.65000, 18.15527
29.66000, 19.61023
29.67000, 17.87213
29.68000, 12.00574
29.69000, 17.74762
29.70000, 26.87231
29.71000, 26.99988
29.72000, 25.98260
29.73000, 21.25751
29.74000, 16.21350
29.75000, 15.56470
29.76000, 13.11298
29.77000, 9.445557
29.78000, 6.492126
29.79000, 7.776917
29.80000, 11.51886
29.81000, 12.33002
29.82000, 9.030273
29.83000, 13.09283
29.84000, 16.79877
29.85000, 22.72211
29.86000, 27.62024
29.87000, 30.54254
29.88000, 33.58118
29.89000, 35.41791
29.90000, 32.58087
29.91000, 36.87909
29.92000, 37.32050
29.93000, 38.36023
29.94000, 39.64911
29.95000, 35.06317
29.96000, 32.25348
29.97000, 31.90106
29.98000, 31.93390
29.99000, 32.29706
30.00000, 31.88342
30.01000, 34.40100
30.02000, 34.14282
30.03000, 29.87897
30.04000, 30.83539
30.05000, 33.46613
30.06000, 31.69208
30.07000, 28.00531
30.08000, 23.67480
30.09000, 22.55157
30.10000, 20.89673
30.11000, 17.75104
30.12000, 14.06970
30.13000, 16.91272
30.14000, 16.55298
30.15000, 12.93555
30.16000, 12.05042
30.17000, 12.88068
30.18000, 10.98218
30.19000, 8.360962
30.20000, 10.32709
30.21000, 16.69763
30.22000, 14.83942
30.23000, 13.26556
30.24000, 12.11304
30.25000, 7.661865
30.26000, 6.831970
30.27000, 7.988403
30.28000, 11.21631
30.29000, 12.17059
30.30000, 12.47314
30.31000, 15.72906
30.32000, 20.82129
30.33000, 21.17194
30.34000, 16.26898
30.35000, 10.35529
30.36000, 7.353149
30.37000, 4.569458
30.38000, 2.106567
30.39000, 2.674805
30.40000, 4.484924
30.41000, 2.843201
30.42000, 4.537292
30.43000, 5.377869
30.44000, 5.793213
30.45000, 5.488770
30.46000, 0.1907350
30.47000, 8.128967
30.48000, 12.22821
30.49000, 14.68829
30.50000, 17.10400
30.51000, 17.10406
30.52000, 17.90399
30.53000, 19.46497
30.54000, 19.01306
30.55000, 20.71057
30.56000, 25.31769
30.57000, 26.91724
30.58000, 28.50537
30.59000, 30.54504
30.60000, 31.07025
30.61000, 27.35992
30.62000, 28.58820
30.63000, 30.90497
30.64000, 32.21936
30.65000, 31.96527
30.66000, 32.14270
30.67000, 33.26019
30.68000, 34.19617
30.69000, 35.49176
30.70000, 40.59027
30.71000, 41.31488
30.72000, 42.93079
30.73000, 41.62115
30.74000, 40.42914
30.75000, 37.85468
30.76000, 36.95380
30.77000, 37.55988
30.78000, 37.73352
30.79000, 34.38116
30.80000, 32.33374
30.81000, 33.27002
30.82000, 34.36890
30.83000, 36.86340
30.84000, 39.18030
30.85000, 38.92596
30.86000, 41.66553
30.87000, 46.72357
30.88000, 48.76117
30.89000, 49.12836
30.90000, 50.45197
30.91000, 50.54913
30.92000, 50.36584
30.93000, 52.16901
30.94000, 52.00269
30.95000, 50.90790
30.96000, 50.19672
30.97000, 45.60596
30.98000, 38.92175
30.99000, 34.65613
31.00000, 27.39691
31.01000, 20.93732
31.02000, 19.85724
31.03000, 17.91565
31.04000, 12.66785
31.05000, 8.887146
31.06000, 11.53998
31.07000, 15.59125
31.08000, 14.06812
31.09000, 13.93750
31.10000, 11.93243
31.11000, 11.81689
31.12000, 12.31287
31.13000, 14.10834
31.14000, 18.03033
31.15000, 17.61389
31.16000, 12.60797
31.17000, 11.66956
31.18000, 12.51562
31.19000, 12.65027
31.20000, 10.80847
31.21000, 10.55621
31.22000, 10.77039
31.23000, 9.476135
31.24000, 9.907349
31.25000, 6.305176
31.26000, 2.899597
31.27000, 4.430359
31.28000, 5.795715
31.29000, 6.886658
31.30000, 8.599060
31.31000, 11.01501
31.32000, 18.91144
31.33000, 25.37543
31.34000, 28.30994
31.35000, 26.44098
31.36000, 25.90155
31.37000, 26.48260
31.38000, 29.43420
31.39000, 30.52441
31.40000, 29.89612
31.41000, 28.43939
31.42000, 26.85822
31.43000, 32.64465
31.44000, 34.54962
31.45000, 31.08118
31.46000, 31.98834
31.47000, 32.80597
31.48000, 33.67224
31.49000, 31.11115
31.50000, 28.04944
31.51000, 25.80951
31.52000, 20.36096
31.53000, 15.67206
31.54000, 14.08868
31.55000, 12.66589
31.56000, 13.92657
31.57000, 14.89392
31.58000, 17.76746
31.59000, 20.55817
31.60000, 21.53046
31.61000, 22.82764
31.62000, 21.16034
31.63000, 16.65216
31.64000, 16.82092
31.65000, 16.71594
31.66000, 15.15155
31.67000, 11.96313
31.68000, 7.743530
31.69000, 4.770264
31.70000, 3.293274
31.71000, 4.481506
31.72000, 3.416931
31.73000, 2.314758
31.74000, 2.054016
31.75000, 7.569641
31.76000, 13.00598
31.77000, 15.22620
31.78000, 15.72070
31.79000, 11.93250
31.80000, 7.856750
31.81000, 10.92834
31.82000, 15.28619
31.83000, 14.23236
31.84000, 11.91791
31.85000, 9.412781
31.86000, 4.800903
31.87000, 4.115845
31.88000, 8.032532
31.89000, 7.534302
31.90000, 7.049438
31.91000, 7.721985
31.92000, 8.553833
31.93000, 7.461975
31.94000, 7.778381
31.95000, 12.18115
31.96000, 18.37482
31.97000, 22.26111
31.98000, 27.96808
31.99000, 23.52380
32.00000, 19.46381
32.01000, 21.95911
32.02000, 25.71362
32.03000, 29.99841
32.04000, 35.61548
32.05000, 40.84985
32.06000, 41.14447
32.07000, 42.32532
32.08000, 46.74945
32.09000, 46.53271
32.10000, 46.67633
32.11000, 45.62512
32.12000, 44.75519
32.13000, 43.53143
32.14000, 45.97803
32.15000, 50.81775
32.16000, 54.25372
32.17000, 50.77490
32.18000, 51.25934
32.19000, 53.22791
32.20000, 57.13873
32.21000, 56.43280
32.22000, 56.41510
32.23000, 56.56256
32.24000, 57.15027
32.25000, 54.45715
32.26000, 54.82617
32.27000, 55.29041
32.28000, 56.03485
32.29000, 52.62335
32.30000, 50.80414
32.31000, 49.58307
32.32000, 51.26111
32.33000, 60.10535
32.34000, 62.62085
32.35000, 60.88538
32.36000, 61.40112
32.37000, 55.35297
32.38000, 50.98199
32.39000, 44.15710
32.40000, 38.28137
32.41000, 39.29980
32.42000, 35.56628
32.43000, 32.65491
32.44000, 32.48969
32.45000, 29.41461
32.46000, 24.95056
32.47000, 22.34167
32.48000, 20.81592
32.49000, 19.48022
32.50000, 17.15570
32.51000, 17.31317
32.52000, 18.17584
32.53000, 16.19037
32.54000, 16.48285
32.55000, 15.82397
32.56000, 13.60675
32.57000, 12.77203
32.58000, 14.74622
32.59000, 14.78430
32.60000, 15.32019
32.61000, 16.36414
32.62000, 16.32831
32.63000, 16.70117
32.64000, 18.05310
32.65000, 17.13916
32.66000, 17.65839
32.67000, 17.01556
32.68000, 18.05286
32.69000, 17.22931
32.70000, 12.16064
32.71000, 7.385193
32.72000, 10.45563
32.73000, 10.30420
32.74000, 3.389771
32.75000, 0.2136230
32.76000, 0.8114010
32.77000, 4.382874
32.78000, 4.317749
32.79000, 2.084290
32.80000, 2.220154
32.81000, 4.801147
32.82000, 5.635071
32.83000, 8.301392
32.84000, 8.320374
32.85000, 4.196167
32.86000, 1.427612
32.87000, 3.663269
32.88000, 3.965332
32.89000, 2.580017
32.90000, 0.1586300
32.91000, 1.464722
32.92000, 1.183105
32.93000, 3.018188
32.94000, 6.189575
32.95000, 7.924744
32.96000, 10.06183
32.97000, 9.222778
32.98000, 9.137756
32.99000, 9.825439
33.00000, 10.09216
33.01000, 7.376648
33.02000, 6.125061
33.03000, 8.772339
33.04000, 12.74048
33.05000, 14.59052
33.06000, 16.43738
33.07000, 12.52313
33.08000, 12.29572
33.09000, 19.87415
33.10000, 25.26746
33.11000, 28.67651
33.12000, 29.92151
33.13000, 26.61426
33.14000, 20.87091
33.15000, 15.31927
33.16000, 16.69855
33.17000, 18.47260
33.18000, 18.58453
33.19000, 19.82922
33.20000, 22.73468
33.21000, 20.70801
33.22000, 15.69104
33.23000, 11.82782
33.24000, 14.18152
33.25000, 19.98987
33.26000, 20.12506
33.27000, 16.57806
33.28000, 16.25885
33.29000, 17.36627
33.30000, 20.26556
33.31000, 24.94952
33.32000, 25.63940
33.33000, 27.11090
33.34000, 28.70221
33.35000, 27.89032
33.36000, 26.68713
33.37000, 25.56573
33.38000, 23.02795
33.39000, 19.30957
33.40000, 13.99847
33.41000, 11.29395
33.42000, 14.01123
33.43000, 16.27026
33.44000, 14.23193
33.45000, 20.23434
33.46000, 26.17352
33.47000, 31.76236
33.48000, 32.50992
33.49000, 31.87720
33.50000, 28.16629
33.51000, 25.36398
33.52000, 27.84244
33.53000, 34.12756
33.54000, 33.76743
33.55000, 32.47296
33.56000, 33.20618
33.57000, 33.86804
33.58000, 33.90070
33.59000, 31.95801
33.60000, 33.67398
33.61000, 33.46664
33.62000, 35.33902
33.63000, 35.38101
33.64000, 33.44376
33.65000, 36.18015
33.66000, 38.18518
33.67000, 34.12195
33.68000, 31.47839
33.69000, 29.20346
33.70000, 25.91016
33.71000, 26.12262
33.72000, 29.63831
33.73000, 28.81775
33.74000, 24.37680
33.75000, 27.22903
33.76000, 31.54773
33.77000, 25.45660
33.78000, 22.32111
33.79000, 23.81104
33.80000, 27.74054
33.81000, 28.03653
33.82000, 28.36191
33.83000, 26.72122
33.84000, 28.69864
33.85000, 27.83136
33.86000, 22.85278
33.87000, 22.30606
33.88000, 24.33704
33.89000, 25.56931
33.90000, 23.85495
33.91000, 23.13443
33.92000, 20.19516
33.93000, 19.21210
33.94000, 19.25446
33.95000, 17.04935
33.96000, 22.58502
33.97000, 23.84015
33.98000, 20.67117
33.99000, 20.83649
34.00000, 20.30814
34.01000, 20.29385
34.02000, 19.89130
34.03000, 19.08551
34.04000, 19.97186
34.05000, 17.15244
34.06000, 15.24628
34.07000, 15.70837
34.08000, 20.25015
34.09000, 22.67154
34.10000, 24.32077
34.11000, 24.12775
34.12000, 21.52628
34.13000, 21.47437
34.14000, 23.46213
34.15000, 25.77750
34.16000, 28.22644
34.17000, 26.25504
34.18000, 20.99030
34.19000, 18.53613
34.20000, 15.82553
34.21000, 11.84464
34.22000, 11.80728
34.23000, 14.14664
34.24000, 15.72955
34.25000, 14.57904
34.26000, 18.51819
34.27000, 22.24991
34.28000, 19.77725
34.29000, 16.69925
34.30000, 15.68588
34.31000, 14.64310
34.32000, 17.16888
34.33000, 14.16925
34.34000, 11.41827
34.35000, 9.487885
34.36000, 5.859131
34.37000, 6.507965
34.38000, 7.991394
34.39000, 8.662384
34.40000, 12.10104
34.41000, 13.05634
34.42000, 14.34512
34.43000, 14.46362
34.44000, 14.85062
34.45000, 16.99826
34.46000, 15.44748
34.47000, 11.03632
34.48000, 8.989777
34.49000, 9.873779
34.50000, 10.37247
34.51000, 11.42575
34.52000, 13.77057
34.53000, 17.55804
34.54000, 22.56412
34.55000, 21.10178
34.56000, 13.54504
34.57000, 6.730896
34.58000, 2.892365
34.59000, 3.033356
34.60000, 5.419891
34.61000, 7.195038
34.62000, 11.66974
34.63000, 14.34808
34.64000, 15.31705
34.65000, 13.13260
34.66000, 9.149750
34.67000, 10.67050
34.68000, 14.61285
34.69000, 15.07083
34.70000, 10.93436
34.71000, 9.814514
34.72000, 7.329254
34.73000, 8.089630
34.74000, 9.478577
34.75000, 12.05219
34.76000, 13.86536
34.77000, 11.10318
34.78000, 11.42755
34.79000, 10.58957
34.80000, 9.979156
34.81000, 11.33640
34.82000, 13.35620
34.83000, 11.00867
34.84000, 6.418701
34.85000, 4.673370
34.86000, 6.402649
34.87000, 6.877533
34.88000, 6.323029
34.89000, 9.356201
34.90000, 7.873932
34.91000, 1.655212
34.92000, 5.505798
34.93000, 0.8636470
34.94000, 2.3163000E-02
34.95000, 3.741211
34.96000, 5.322693
34.97000, 4.910858
34.98000, 4.825867
34.99000, 2.072784
35.00000, 2.132446
35.01000, 1.012604
35.02000, 3.915283
35.03000, 5.169678
35.04000, 3.756622
35.05000, 4.121063
35.06000, 5.679047
35.07000, 2.700592
35.08000, 5.100555
35.09000, 6.800079
35.10000, 4.243195
35.11000, 3.305847
35.12000, 9.264038
35.13000, 11.87479
35.14000, 8.850128
35.15000, 3.581238
35.16000, 0.8272400
35.17000, 4.055237
35.18000, 1.914215
35.19000, 6.919800
35.20000, 8.235748
35.21000, 9.459717
35.22000, 11.25101
35.23000, 17.37729
35.24000, 20.83157
35.25000, 20.41174
35.26000, 22.97748
35.27000, 24.51447
35.28000, 23.30490
35.29000, 21.83643
35.30000, 26.19125
35.31000, 25.57239
35.32000, 21.23987
35.33000, 19.22800
35.34000, 21.24274
35.35000, 20.66815
35.36000, 19.16122
35.37000, 21.22397
35.38000, 19.77032
35.39000, 20.61932
35.40000, 23.24396
35.41000, 18.31430
35.42000, 15.04828
35.43000, 15.54028
35.44000, 13.70193
35.45000, 12.37524
35.46000, 17.42325
35.47000, 14.84293
35.48000, 11.10223
35.49000, 12.74527
35.50000, 13.82300
35.51000, 14.64435
35.52000, 17.58441
35.53000, 16.37515
35.54000, 16.43558
35.55000, 16.58069
35.56000, 20.48450
35.57000, 21.08597
35.58000, 18.41415
35.59000, 13.27704
35.60000, 9.843628
35.61000, 12.91992
35.62000, 11.24695
35.63000, 10.74667
35.64000, 10.82709
35.65000, 13.59622
35.66000, 15.03110
35.67000, 15.31369
35.68000, 14.11703
35.69000, 16.49808
35.70000, 19.36688
35.71000, 20.36444
35.72000, 12.64679
35.73000, 10.55588
35.74000, 12.07175
35.75000, 11.65234
35.76000, 13.08075
35.77000, 14.57489
35.78000, 16.31818
35.79000, 16.04080
35.80000, 17.31931
35.81000, 20.44855
35.82000, 22.41260
35.83000, 26.51944
35.84000, 29.66010
35.85000, 29.34351
35.86000, 24.86371
35.87000, 20.08069
35.88000, 15.45651
35.89000, 16.01907
35.90000, 17.72052
35.91000, 16.62476
35.92000, 16.61084
35.93000, 16.67670
35.94000, 12.87244
35.95000, 8.015015
35.96000, 5.336487
35.97000, 4.020782
35.98000, 6.506989
35.99000, 10.84897
36.00000, 8.659882
36.01000, 4.828674
36.02000, 6.471283
36.03000, 7.726807
36.04000, 4.812225
36.05000, 6.759491
36.06000, 7.367676
36.07000, 8.197723
36.08000, 6.891693
36.09000, 4.052490
36.10000, 6.255768
36.11000, 5.208618
36.12000, 0.5382690
36.13000, 1.105225
36.14000, 1.166229
36.15000, 1.719513
36.16000, 1.215942
36.17000, 2.447815
36.18000, 1.526154
36.19000, 0.5541380
36.20000, 2.007538
36.21000, 2.536102
36.22000, 4.315308
36.23000, 7.127899
36.24000, 8.378906
36.25000, 3.206909
36.26000, 5.530640
36.27000, 9.364288
36.28000, 7.349152
36.29000, 6.195282
36.30000, 9.039063
36.31000, 8.922333
36.32000, 12.43787
36.33000, 12.91064
36.34000, 13.02051
36.35000, 11.29407
36.36000, 7.180206
36.37000, 3.684570
36.38000, 6.912933
36.39000, 8.256714
36.40000, 8.221649
36.41000, 11.76477
36.42000, 16.78406
36.43000, 19.91956
36.44000, 20.25815
36.45000, 23.12912
36.46000, 23.42395
36.47000, 22.62930
36.48000, 25.73495
36.49000, 33.25067
36.50000, 37.64526
36.51000, 39.35217
36.52000, 39.29684
36.53000, 39.10852
36.54000, 39.42642
36.55000, 42.40640
36.56000, 41.28448
36.57000, 39.12164
36.58000, 38.25995
36.59000, 42.70636
36.60000, 38.68195
36.61000, 34.78961
36.62000, 37.87280
36.63000, 40.65768
36.64000, 37.21878
36.65000, 38.28699
36.66000, 39.51923
36.67000, 39.99969
36.68000, 38.40826
36.69000, 33.77698
36.70000, 27.98386
36.71000, 29.58487
36.72000, 27.44604
36.73000, 28.74030
36.74000, 33.94772
36.75000, 33.70935
36.76000, 30.50208
36.77000, 32.72003
36.78000, 39.32910
36.79000, 43.50534
36.80000, 44.78073
36.81000, 48.50034
36.82000, 47.01147
36.83000, 44.07401
36.84000, 42.42374
36.85000, 43.70502
36.86000, 43.76556
36.87000, 42.33804
36.88000, 36.96286
36.89000, 36.68115
36.90000, 37.08325
36.91000, 38.55759
36.92000, 38.83011
36.93000, 43.12482
36.94000, 47.17776
36.95000, 47.58182
36.96000, 46.15112
36.97000, 41.25757
36.98000, 43.08228
36.99000, 40.21411
37.00000, 35.88324
37.01000, 27.68259
37.02000, 20.26306
37.03000, 15.82373
37.04000, 14.72766
37.05000, 10.99173
37.06000, 13.85202
37.07000, 15.91052
37.08000, 17.98624
37.09000, 19.93515
37.10000, 15.49918
37.11000, 8.648529
37.12000, 8.428925
37.13000, 9.908844
37.14000, 9.328125
37.15000, 7.748199
37.16000, 14.45721
37.17000, 19.37143
37.18000, 21.27487
37.19000, 21.95547
37.20000, 18.93732
37.21000, 20.37238
37.22000, 29.91370
37.23000, 36.07318
37.24000, 34.81387
37.25000, 28.06177
37.26000, 24.20590
37.27000, 23.97220
37.28000, 23.73871
37.29000, 19.23947
37.30000, 14.39990
37.31000, 15.77081
37.32000, 17.85797
37.33000, 17.80396
37.34000, 16.24088
37.35000, 17.83865
37.36000, 21.41013
37.37000, 17.84848
37.38000, 15.93484
37.39000, 20.35077
37.40000, 25.65204
37.41000, 35.76233
37.42000, 33.73706
37.43000, 29.89896
37.44000, 31.65613
37.45000, 32.27567
37.46000, 35.26349
37.47000, 34.66666
37.48000, 33.25925
37.49000, 34.85428
37.50000, 30.82593
37.51000, 25.06674
37.52000, 20.14786
37.53000, 14.30127
37.54000, 13.64493
37.55000, 13.76990
37.56000, 9.505310
37.57000, 13.31247
37.58000, 14.98602
37.59000, 10.05179
37.60000, 8.939850
37.61000, 4.763123
37.62000, 2.679688
37.63000, 3.693451
37.64000, 2.251495
37.65000, 3.081818
37.66000, 3.180908
37.67000, 3.256805
37.68000, 3.187500
37.69000, 5.168976
37.70000, 1.131378
37.71000, 0.8942570
37.72000, 1.923126
37.73000, 1.601196
37.74000, 2.071503
37.75000, 4.963043
37.76000, 8.438843
37.77000, 13.71384
37.78000, 12.23911
37.79000, 5.213562
37.80000, 1.411224
37.81000, 2.229889
37.82000, 0.9645690
37.83000, 5.413208
37.84000, 8.536102
37.85000, 7.789215
37.86000, 6.491516
37.87000, 8.958038
37.88000, 12.86179
37.89000, 11.56870
37.90000, 8.052795
37.91000, 6.557159
37.92000, 7.379669
37.93000, 6.031464
37.94000, 6.952393
37.95000, 12.90054
37.96000, 16.61288
37.97000, 20.00735
37.98000, 20.16809
37.99000, 14.92099
38.00000, 15.72308
38.01000, 23.62866
38.02000, 25.69962
38.03000, 19.02115
38.04000, 17.56003
38.05000, 18.17197
38.06000, 17.31018
38.07000, 18.91190
38.08000, 20.98676
38.09000, 19.90424
38.10000, 18.79547
38.11000, 20.77112
38.12000, 22.48279
38.13000, 26.33856
38.14000, 30.19739
38.15000, 32.37228
38.16000, 32.55228
38.17000, 34.62836
38.18000, 31.49747
38.19000, 28.39966
38.20000, 26.79788
38.21000, 30.31720
38.22000, 27.79355
38.23000, 27.68396
38.24000, 28.72443
38.25000, 26.52194
38.26000, 26.34552
38.27000, 25.20612
38.28000, 24.33231
38.29000, 21.54880
38.30000, 15.68854
38.31000, 18.07278
38.32000, 25.09454
38.33000, 23.77530
38.34000, 19.54688
38.35000, 19.55426
38.36000, 16.88873
38.37000, 20.64011
38.38000, 29.43744
38.39000, 31.66571
38.40000, 31.24689
38.41000, 29.00705
38.42000, 24.47318
38.43000, 28.76819
38.44000, 28.03915
38.45000, 25.88400
38.46000, 24.03485
38.47000, 22.82855
38.48000, 22.18719
38.49000, 16.50574
38.50000, 12.35706
38.51000, 11.09189
38.52000, 10.40781
38.53000, 7.620117
38.54000, 8.749695
38.55000, 10.58670
38.56000, 8.784912
38.57000, 4.607574
38.58000, 4.120483
38.59000, 6.205200
38.60000, 10.75375
38.61000, 6.827118
38.62000, 3.249359
38.63000, 3.4423999E-02
38.64000, 7.353729
38.65000, 16.39886
38.66000, 19.94983
38.67000, 22.34967
38.68000, 20.12329
38.69000, 18.81836
38.70000, 21.55209
38.71000, 21.75699
38.72000, 24.94064
38.73000, 27.32800
38.74000, 25.37720
38.75000, 26.50204
38.76000, 25.47366
38.77000, 25.89404
38.78000, 27.24313
38.79000, 28.44193
38.80000, 22.43546
38.81000, 16.39670
38.82000, 9.341705
38.83000, 3.930389
38.84000, 8.141602
38.85000, 14.08484
38.86000, 14.44144
38.87000, 15.97052
38.88000, 17.12643
38.89000, 16.33734
38.90000, 14.45279
38.91000, 13.76233
38.92000, 11.87961
38.93000, 9.301697
38.94000, 16.52347
38.95000, 19.61096
38.96000, 21.88223
38.97000, 23.41617
38.98000, 17.51294
38.99000, 17.25137
39.00000, 19.99478
39.01000, 19.82260
39.02000, 19.13147
39.03000, 21.07809
39.04000, 23.60742
39.05000, 25.46652
39.06000, 25.25632
39.07000, 21.82584
39.08000, 17.27908
39.09000, 12.13504
39.10000, 12.70770
39.11000, 19.43811
39.12000, 18.83716
39.13000, 19.29401
39.14000, 16.43152
39.15000, 13.63876
39.16000, 13.70566
39.17000, 8.134308
39.18000, 5.102631
39.19000, 3.103668
39.20000, 0.3775940
39.21000, 0.6448970
39.22000, 1.693726
39.23000, 6.7841001E-02
39.24000, 2.657471
39.25000, 1.332458
39.26000, 3.516144
39.27000, 3.115784
39.28000, 1.146027
39.29000, 1.531036
39.30000, 3.874695
39.31000, 6.491058
39.32000, 7.127075
39.33000, 7.420776
39.34000, 11.14420
39.35000, 21.31027
39.36000, 27.90503
39.37000, 22.25848
39.38000, 22.77267
39.39000, 22.50546
39.40000, 21.33200
39.41000, 15.48120
39.42000, 12.84808
39.43000, 7.953644
39.44000, 4.422882
39.45000, 6.623840
39.46000, 9.070435
39.47000, 2.362762
39.48000, 5.830261
39.49000, 6.473419
39.50000, 5.816193
39.51000, 3.567078
39.52000, 0.8659060
39.53000, 0.8994450
39.54000, 1.299805
39.55000, 3.802887
39.56000, 4.083832
39.57000, 5.407684
39.58000, 4.746216
39.59000, 5.315460
39.60000, 6.093353
39.61000, 3.716003
39.62000, 3.158325
39.63000, 6.915314
39.64000, 10.99704
39.65000, 15.16342
39.66000, 20.34952
39.67000, 25.31833
39.68000, 22.19177
39.69000, 17.25595
39.70000, 23.27084
39.71000, 23.69339
39.72000, 16.13763
39.73000, 13.88354
39.74000, 19.91318
39.75000, 20.10144
39.76000, 15.69342
39.77000, 15.03204
39.78000, 12.63141
39.79000, 9.922394
39.80000, 13.72906
39.81000, 7.648407
39.82000, 6.472443
39.83000, 11.44724
39.84000, 8.794617
39.85000, 2.841766
39.86000, 0.4885250
39.87000, 2.988281
39.88000, 3.851685
39.89000, 2.281982
39.90000, 2.648621
39.91000, 11.08087
39.92000, 18.46188
39.93000, 21.18356
39.94000, 23.27097
39.95000, 27.58908
39.96000, 30.78290
39.97000, 31.60144
39.98000, 34.60165
39.99000, 37.30664
40.00000, 34.53436
40.01000, 31.18280
40.02000, 27.32990
40.03000, 28.23178
40.04000, 24.50671
40.05000, 19.92188
40.06000, 14.88828
40.07000, 10.02399
40.08000, 9.487915
40.09000, 11.68463
40.10000, 11.90524
40.11000, 14.72159
40.12000, 14.81567
40.13000, 13.78552
40.14000, 18.10016
40.15000, 26.73462
40.16000, 29.37091
40.17000, 29.08893
40.18000, 31.85571
40.19000, 35.29532
40.20000, 30.87665
40.21000, 30.63110
40.22000, 32.94232
40.23000, 32.57730
40.24000, 31.83704
40.25000, 32.13556
40.26000, 27.24884
40.27000, 28.83594
40.28000, 27.70682
40.29000, 23.99142
40.30000, 23.88287
40.31000, 22.85715
40.32000, 16.18512
40.33000, 16.55692
40.34000, 24.29056
40.35000, 28.00595
40.36000, 29.33118
40.37000, 30.75418
40.38000, 28.45908
40.39000, 24.04880
40.40000, 22.47803
40.41000, 22.35495
40.42000, 27.91342
40.43000, 25.88757
40.44000, 21.83038
40.45000, 18.83331
40.46000, 19.91382
40.47000, 23.31622
40.48000, 27.06107
40.49000, 24.53629
40.50000, 25.08817
40.51000, 29.11404
40.52000, 36.25790
40.53000, 34.73581
40.54000, 33.93268
40.55000, 36.64655
40.56000, 36.87839
40.57000, 34.60330
40.58000, 30.79916
40.59000, 31.11008
40.60000, 28.96201
40.61000, 29.77698
40.62000, 31.71494
40.63000, 27.78491
40.64000, 28.03198
40.65000, 30.17001
40.66000, 27.91806
40.67000, 29.72668
40.68000, 27.07401
40.69000, 31.82779
40.70000, 34.15311
40.71000, 28.16345
40.72000, 23.40759
40.73000, 14.58627
40.74000, 12.51025
40.75000, 15.74054
40.76000, 17.92166
40.77000, 14.26062
40.78000, 10.54572
40.79000, 6.098846
40.80000, 1.391052
40.81000, 0.8023380
40.82000, 5.165741
40.83000, 9.669281
40.84000, 11.28384
40.85000, 7.615570
40.86000, 5.526367
40.87000, 7.245270
40.88000, 5.405273
40.89000, 2.150391
40.90000, 1.613617
40.91000, 4.072968
40.92000, 3.387451
40.93000, 2.220032
40.94000, 3.369720
40.95000, 3.066559
40.96000, 7.693512
40.97000, 6.628601
40.98000, 4.387787
40.99000, 4.070190
41.00000, 3.946686
41.01000, 6.189331
41.02000, 13.88116
41.03000, 13.48935
41.04000, 15.48270
41.05000, 17.85822
41.06000, 21.36688
41.07000, 16.81372
41.08000, 17.23804
41.09000, 23.45270
41.10000, 31.45816
41.11000, 30.83487
41.12000, 26.70380
41.13000, 24.37189
41.14000, 22.47028
41.15000, 20.87787
41.16000, 20.72168
41.17000, 18.37372
41.18000, 16.90408
41.19000, 17.59964
41.20000, 11.01746
41.21000, 3.305511
41.22000, 10.29382
41.23000, 16.08939
41.24000, 14.84021
41.25000, 10.54831
41.26000, 14.35565
41.27000, 20.84726
41.28000, 19.28510
41.29000, 13.75266
41.30000, 7.759033
41.31000, 7.144623
41.32000, 9.426514
41.33000, 5.968658
41.34000, 7.924225
41.35000, 8.137543
41.36000, 3.530487
41.37000, 0.7127380
41.38000, 1.731750
41.39000, 3.593567
41.40000, 10.75217
41.41000, 12.07001
41.42000, 14.26318
41.43000, 16.74561
41.44000, 14.14035
41.45000, 13.75336
41.46000, 18.32666
41.47000, 21.72723
41.48000, 15.68011
41.49000, 8.246338
41.50000, 8.104767
41.51000, 7.244598
41.52000, 12.05469
41.53000, 13.12518
41.54000, 7.834198
41.55000, 4.033752
41.56000, 5.835083
41.57000, 10.35812
41.58000, 12.08444
41.59000, 9.130005
41.60000, 4.939148
41.61000, 6.822021
41.62000, 6.041840
41.63000, 0.5513920
41.64000, 0.5416870
41.65000, 7.841736
41.66000, 16.97543
41.67000, 18.95261
41.68000, 15.74677
41.69000, 12.79034
41.70000, 10.01227
41.71000, 7.900482
41.72000, 8.924011
41.73000, 13.92786
41.74000, 15.09406
41.75000, 13.58569
41.76000, 6.005768
41.77000, 3.996216
41.78000, 7.702118
41.79000, 11.02441
41.80000, 13.47702
41.81000, 16.48801
41.82000, 18.67242
41.83000, 15.52319
41.84000, 10.31735
41.85000, 8.311859
41.86000, 4.952728
41.87000, 1.368042
41.88000, 4.240387
41.89000, 4.974030
41.90000, 4.048492
41.91000, 5.968781
41.92000, 6.893158
41.93000, 3.866608
41.94000, 7.115448
41.95000, 1.630096
41.96000, 5.478210
41.97000, 12.40085
41.98000, 14.91083
41.99000, 20.48822
42.00000, 28.27493
42.01000, 29.83804
42.02000, 26.46350
42.03000, 25.72836
42.04000, 19.28555
42.05000, 17.78506
42.06000, 20.11298
42.07000, 18.44727
42.08000, 12.01587
42.09000, 7.126892
42.10000, 8.084229
42.11000, 11.55496
42.12000, 15.01202
42.13000, 19.94046
42.14000, 21.47925
42.15000, 23.48138
42.16000, 23.06287
42.17000, 25.32672
42.18000, 24.16092
42.19000, 18.94257
42.20000, 10.41058
42.21000, 4.117950
42.22000, 7.449738
42.23000, 12.70590
42.24000, 9.926453
42.25000, 5.448334
42.26000, 3.803772
42.27000, 1.195740
42.28000, 7.530365
42.29000, 16.89227
42.30000, 27.05853
42.31000, 29.00519
42.32000, 26.08414
42.33000, 27.18152
42.34000, 22.83524
42.35000, 17.37036
42.36000, 19.51883
42.37000, 19.80072
42.38000, 15.28799
42.39000, 11.55258
42.40000, 9.189545
42.41000, 8.458832
42.42000, 7.547455
42.43000, 10.03241
42.44000, 12.28574
42.45000, 5.600403
42.46000, 0.4873960
42.47000, 0.6287540
42.48000, 1.2573000E-02
42.49000, 1.181366
42.50000, 0.9766850
42.51000, 0.7012940
42.52000, 1.605255
42.53000, 0.8905030
42.54000, 3.1830002E-02
42.55000, 2.474457
42.56000, 6.695343
42.57000, 6.718597
42.58000, 3.574097
42.59000, 7.619965
42.60000, 17.28513
42.61000, 25.04062
42.62000, 29.25735
42.63000, 27.63644
42.64000, 25.44580
42.65000, 25.28448
42.66000, 24.76447
42.67000, 16.10867
42.68000, 15.55927
42.69000, 14.28207
42.70000, 11.55521
42.71000, 10.64459
42.72000, 10.76041
42.73000, 6.630615
42.74000, 8.620026
42.75000, 11.20184
42.76000, 14.21463
42.77000, 20.38934
42.78000, 32.43979
42.79000, 29.13214
42.80000, 26.22440
42.81000, 29.28973
42.82000, 34.60193
42.83000, 30.09177
42.84000, 27.91632
42.85000, 34.01489
42.86000, 36.28650
42.87000, 39.12509
42.88000, 37.97375
42.89000, 37.89038
42.90000, 36.70407
42.91000, 35.31473
42.92000, 34.50937
42.93000, 31.85403
42.94000, 27.52124
42.95000, 23.41208
42.96000, 16.33621
42.97000, 14.18069
42.98000, 15.41153
42.99000, 21.61737
43.00000, 21.64392
43.01000, 11.62262
43.02000, 5.709015
43.03000, 9.424805
43.04000, 12.53906
43.05000, 17.40091
43.06000, 19.91580
43.07000, 17.89865
43.08000, 15.25888
43.09000, 14.97598
43.10000, 15.68066
43.11000, 15.22849
43.12000, 14.91095
43.13000, 15.70129
43.14000, 17.41226
43.15000, 22.89041
43.16000, 31.37778
43.17000, 35.99313
43.18000, 33.69543
43.19000, 37.70773
43.20000, 48.29001
43.21000, 57.42020
43.22000, 57.39441
43.23000, 61.01160
43.24000, 58.05472
43.25000, 44.51379
43.26000, 34.87787
43.27000, 34.49088
43.28000, 32.54935
43.29000, 30.28729
43.30000, 33.71112
43.31000, 28.77090
43.32000, 18.56665
43.33000, 15.09030
43.34000, 19.70486
43.35000, 23.85269
43.36000, 27.12036
43.37000, 29.01566
43.38000, 25.59393
43.39000, 24.33014
43.40000, 23.56628
43.41000, 26.00531
43.42000, 24.57419
43.43000, 22.65897
43.44000, 27.93066
43.45000, 32.88620
43.46000, 42.59659
43.47000, 46.24185
43.48000, 47.96796
43.49000, 51.01187
43.50000, 43.94467
43.51000, 46.08328
43.52000, 48.29770
43.53000, 43.05902
43.54000, 40.85907
43.55000, 38.41968
43.56000, 35.04807
43.57000, 26.85757
43.58000, 20.33484
43.59000, 19.89792
43.60000, 22.79877
43.61000, 22.14441
43.62000, 27.73187
43.63000, 27.42517
43.64000, 24.21924
43.65000, 22.74908
43.66000, 20.59869
43.67000, 25.30804
43.68000, 28.60971
43.69000, 28.65353
43.70000, 22.28812
43.71000, 17.33340
43.72000, 16.56744
43.73000, 17.60004
43.74000, 21.80292
43.75000, 29.13016
43.76000, 30.57312
43.77000, 30.09177
43.78000, 30.70038
43.79000, 27.36469
43.80000, 25.01663
43.81000, 23.92438
43.82000, 20.61475
43.83000, 16.86581
43.84000, 17.74756
43.85000, 18.59000
43.86000, 13.61108
43.87000, 15.14587
43.88000, 16.99030
43.89000, 12.32239
43.90000, 8.507111
43.91000, 4.297546
43.92000, 3.216400
43.93000, 2.732483
43.94000, 3.256378
43.95000, 3.104340
43.96000, 5.439423
43.97000, 8.792877
43.98000, 8.263519
43.99000, 6.209045
44.00000, 9.6404999E-02
44.01000, 2.306610
44.02000, 9.380676
44.03000, 11.83649
44.04000, 13.12283
44.05000, 10.69684
44.06000, 12.43039
44.07000, 13.41162
44.08000, 22.71542
44.09000, 23.35382
44.10000, 19.06879
44.11000, 13.48944
44.12000, 6.795624
44.13000, 5.785614
44.14000, 4.540619
44.15000, 5.274811
44.16000, 4.867767
44.17000, 7.253967
44.18000, 10.26492
44.19000, 9.196075
44.20000, 6.987579
44.21000, 12.34418
44.22000, 11.56168
44.23000, 12.58170
44.24000, 14.33789
44.25000, 20.89478
44.26000, 23.65448
44.27000, 24.27515
44.28000, 22.84445
44.29000, 20.19623
44.30000, 19.88019
44.31000, 23.61685
44.32000, 27.08551
44.33000, 26.94534
44.34000, 23.98532
44.35000, 25.02603
44.36000, 34.54984
44.37000, 35.02100
44.38000, 38.40082
44.39000, 38.80008
44.40000, 35.50873
44.41000, 31.86105
44.42000, 28.60928
44.43000, 24.35706
44.44000, 22.46530
44.45000, 21.85318
44.46000, 20.24747
44.47000, 9.771210
44.48000, 11.69229
44.49000, 16.01678
44.50000, 18.53674
44.51000, 14.95511
44.52000, 14.71289
44.53000, 19.00223
44.54000, 22.78342
44.55000, 25.35306
44.56000, 25.31219
44.57000, 27.70615
44.58000, 29.25412
44.59000, 30.34537
44.60000, 37.75192
44.61000, 49.62381
44.62000, 49.28693
44.63000, 44.15540
44.64000, 40.78613
44.65000, 43.46017
44.66000, 41.57254
44.67000, 36.07819
44.68000, 37.46313
44.69000, 36.33752
44.70000, 33.49020
44.71000, 31.23224
44.72000, 25.29858
44.73000, 17.63919
44.74000, 10.01312
44.75000, 11.20023
44.76000, 20.58661
44.77000, 16.84219
44.78000, 14.78918
44.79000, 16.62244
44.80000, 18.62201
44.81000, 22.63684
44.82000, 23.30991
44.83000, 24.77237
44.84000, 26.44315
44.85000, 24.35123
44.86000, 24.29565
44.87000, 19.26334
44.88000, 15.74139
44.89000, 18.41370
44.90000, 16.87732
44.91000, 23.22430
44.92000, 23.92056
44.93000, 26.20831
44.94000, 29.06534
44.95000, 28.75671
44.96000, 34.37238
44.97000, 38.99341
44.98000, 37.00876
44.99000, 25.06839
45.00000, 18.51343
45.01000, 19.06671
45.02000, 17.57358
45.03000, 15.24887
45.04000, 21.50854
45.05000, 18.66452
45.06000, 20.97290
45.07000, 29.25760
45.08000, 28.87460
45.09000, 27.72800
45.10000, 30.01971
45.11000, 30.89462
45.12000, 28.97076
45.13000, 28.87262
45.14000, 32.61530
45.15000, 31.91861
45.16000, 28.39667
45.17000, 30.33066
45.18000, 29.97137
45.19000, 29.58777
45.20000, 30.87372
45.21000, 30.90442
45.22000, 27.73242
45.23000, 31.23297
45.24000, 33.68506
45.25000, 33.00372
45.26000, 39.13501
45.27000, 40.87283
45.28000, 30.47781
45.29000, 23.37518
45.30000, 19.36768
45.31000, 13.90845
45.32000, 8.380737
45.33000, 5.360291
45.34000, 2.620911
45.35000, 3.207428
45.36000, 0.3367610
45.37000, 5.771515
45.38000, 7.066559
45.39000, 3.731506
45.40000, 0.5797120
45.41000, 2.537811
45.42000, 2.245087
45.43000, 1.311005
45.44000, 5.968323
45.45000, 7.520111
45.46000, 7.526520
45.47000, 8.428711
45.48000, 14.75854
45.49000, 13.72696
45.50000, 13.78915
45.51000, 16.00006
45.52000, 18.79965
45.53000, 20.59348
45.54000, 19.48050
45.55000, 20.10434
45.56000, 28.13351
45.57000, 28.58130
45.58000, 29.01013
45.59000, 22.89066
45.60000, 18.38565
45.61000, 19.19696
45.62000, 17.42892
45.63000, 17.42239
45.64000, 16.24008
45.65000, 13.26996
45.66000, 17.45261
45.67000, 16.11935
45.68000, 17.68750
45.69000, 18.89133
45.70000, 14.72891
45.71000, 8.626312
45.72000, 8.064453
45.73000, 3.930359
45.74000, 7.794586
45.75000, 11.01062
45.76000, 0.4522400
45.77000, 10.19971
45.78000, 18.48346
45.79000, 20.64404
45.80000, 20.08945
45.81000, 21.76065
45.82000, 22.89276
45.83000, 14.46173
45.84000, 15.34253
45.85000, 22.52219
45.86000, 26.50476
45.87000, 27.76120
45.88000, 26.19040
45.89000, 28.16565
45.90000, 28.08682
45.91000, 25.97192
45.92000, 27.12592
45.93000, 24.32086
45.94000, 18.67505
45.95000, 14.96323
45.96000, 11.77304
45.97000, 12.86185
45.98000, 15.78867
45.99000, 14.96945
46.00000, 10.81424
46.01000, 4.523041
46.02000, 8.258667
46.03000, 12.35931
46.04000, 13.75107
46.05000, 15.92581
46.06000, 15.74762
46.07000, 17.66849
46.08000, 23.23639
46.09000, 19.35333
46.10000, 16.69339
46.11000, 17.49347
46.12000, 18.48871
46.13000, 19.69702
46.14000, 18.60046
46.15000, 18.84296
46.16000, 18.68665
46.17000, 18.68048
46.18000, 20.35846
46.19000, 19.10660
46.20000, 16.57196
46.21000, 15.25195
46.22000, 13.86011
46.23000, 9.607880
46.24000, 7.481079
46.25000, 7.282501
46.26000, 8.330139
46.27000, 9.366058
46.28000, 8.600281
46.29000, 7.528717
46.30000, 6.305542
46.31000, 4.772797
46.32000, 1.301514
46.33000, 2.618927
46.34000, 3.422119
46.35000, 6.262787
46.36000, 11.14688
46.37000, 15.36124
46.38000, 15.89386
46.39000, 24.08005
46.40000, 27.30630
46.41000, 15.98935
46.42000, 16.61978
46.43000, 23.39371
46.44000, 22.09320
46.45000, 14.54114
46.46000, 12.52368
46.47000, 11.74893
46.48000, 9.769348
46.49000, 7.312683
46.50000, 7.062439
46.51000, 11.06531
46.52000, 11.15079
46.53000, 12.27917
46.54000, 18.89612
46.55000, 24.10150
46.56000, 24.57480
46.57000, 20.44672
46.58000, 23.03873
46.59000, 27.09775
46.60000, 20.74210
46.61000, 10.49487
46.62000, 5.595703
46.63000, 4.623810
46.64000, 4.664825
46.65000, 5.699493
46.66000, 3.081879
46.67000, 3.469086
46.68000, 15.00861
46.69000, 21.92038
46.70000, 14.52359
46.71000, 6.694153
46.72000, 3.670746
46.73000, 3.399353
46.74000, 1.554382
46.75000, 2.954010
46.76000, 0.7472840
46.77000, 3.733063
46.78000, 4.894958
46.79000, 4.188873
46.80000, 6.034515
46.81000, 1.339325
46.82000, 3.063507
46.83000, 0.3683780
46.84000, 4.258820
46.85000, 6.753021
46.86000, 10.33997
46.87000, 8.038757
46.88000, 7.980377
46.89000, 13.26291
46.90000, 11.26834
46.91000, 8.746704
46.92000, 10.07379
46.93000, 11.36649
46.94000, 16.66989
46.95000, 14.88821
46.96000, 18.83206
46.97000, 21.86429
46.98000, 25.14865
46.99000, 21.73819
47.00000, 16.73083
47.01000, 10.80170
47.02000, 9.290710
47.03000, 11.87598
47.04000, 10.91046
47.05000, 5.271240
47.06000, 1.714264
47.07000, 9.6375003E-02
47.08000, 0.7451170
47.09000, 2.975922
47.10000, 1.451050
47.11000, 1.627167
47.12000, 6.387634
47.13000, 9.589539
47.14000, 7.340973
47.15000, 7.953857
47.16000, 12.26425
47.17000, 18.58014
47.18000, 20.67767
47.19000, 18.60974
47.20000, 19.92044
47.21000, 23.06393
47.22000, 21.74796
47.23000, 22.85968
47.24000, 28.93332
47.25000, 33.76718
47.26000, 34.24670
47.27000, 29.28745
47.28000, 28.50290
47.29000, 25.93304
47.30000, 20.89490
47.31000, 16.29446
47.32000, 15.22180
47.33000, 12.14496
47.34000, 14.69485
47.35000, 14.80457
47.36000, 7.782104
47.37000, 3.823486
47.38000, 4.496704
47.39000, 2.774811
47.40000, 1.287231
47.41000, 0.3625790
47.42000, 0.2009280
47.43000, 4.595398
47.44000, 8.812958
47.45000, 5.390564
47.46000, 4.481323
47.47000, 4.777222
47.48000, 7.613342
47.49000, 7.407684
47.50000, 5.725525
47.51000, 7.843567
47.52000, 15.14166
47.53000, 20.12769
47.54000, 23.65820
47.55000, 25.17709
47.56000, 21.08960
47.57000, 24.58383
47.58000, 22.14069
47.59000, 19.06232
47.60000, 21.18976
47.61000, 17.89703
47.62000, 11.49231
47.63000, 6.288849
47.64000, 4.456757
47.65000, 1.173157
47.66000, 4.621887
47.67000, 11.89880
47.68000, 10.46570
47.69000, 5.235229
47.70000, 6.925293
47.71000, 2.485077
47.72000, 2.604706
47.73000, 1.619202
47.74000, 6.454315
47.75000, 7.407776
47.76000, 5.971313
47.77000, 7.646637
47.78000, 10.37241
47.79000, 9.951019
47.80000, 11.36407
47.81000, 11.39828
47.82000, 11.05005
47.83000, 14.12292
47.84000, 16.67084
47.85000, 21.39423
47.86000, 25.25558
47.87000, 21.82974
47.88000, 20.61533
47.89000, 14.12326
47.90000, 11.65955
47.91000, 10.93439
47.92000, 8.345795
47.93000, 9.236023
47.94000, 9.793549
47.95000, 6.225403
47.96000, 3.252136
47.97000, 3.824554
47.98000, 7.357178
47.99000, 7.029297
48.00000, 10.02032
48.01000, 11.06836
48.02000, 16.11005
48.03000, 15.28452
48.04000, 12.04172
48.05000, 20.50983
48.06000, 25.56815
48.07000, 20.57507
48.08000, 14.70956
48.09000, 18.25040
48.10000, 18.91061
48.11000, 15.61029
48.12000, 15.95349
48.13000, 17.49576
48.14000, 15.19525
48.15000, 16.18890
48.16000, 21.51016
48.17000, 21.05420
48.18000, 13.54108
48.19000, 8.985809
48.20000, 12.39859
48.21000, 7.787354
48.22000, 9.221252
48.23000, 11.70142
48.24000, 13.71689
48.25000, 21.24673
48.26000, 22.83804
48.27000, 20.11194
48.28000, 19.05634
48.29000, 16.00339
48.30000, 21.32901
48.31000, 18.09818
48.32000, 16.59567
48.33000, 21.57202
48.34000, 23.09235
48.35000, 25.78973
48.36000, 21.97736
48.37000, 24.35620
48.38000, 32.11230
48.39000, 31.13586
48.40000, 33.75589
48.41000, 39.41644
48.42000, 44.10452
48.43000, 51.19785
48.44000, 54.66711
48.45000, 52.30402
48.46000, 48.50342
48.47000, 47.63123
48.48000, 36.59766
48.49000, 25.72940
48.50000, 25.95715
48.51000, 29.60370
48.52000, 29.18652
48.53000, 30.57233
48.54000, 27.74457
48.55000, 28.03638
48.56000, 32.83710
48.57000, 40.65894
48.58000, 38.66653
48.59000, 41.41995
48.60000, 44.69754
48.61000, 38.67535
48.62000, 39.16516
48.63000, 36.92206
48.64000, 33.39578
48.65000, 24.00452
48.66000, 16.01096
48.67000, 9.689514
48.68000, 4.051910
48.69000, 2.5635000E-02
48.70000, 12.11923
48.71000, 20.00366
48.72000, 19.76706
48.73000, 25.65463
48.74000, 23.75574
48.75000, 29.40619
48.76000, 45.50015
48.77000, 44.83987
48.78000, 41.11462
48.79000, 39.89154
48.80000, 43.25613
48.81000, 43.89987
48.82000, 29.93436
48.83000, 38.02554
48.84000, 45.16946
48.85000, 44.68259
48.86000, 56.08853
48.87000, 61.53830
48.88000, 62.13290
48.89000, 57.93088
48.90000, 53.95963
48.91000, 56.19629
48.92000, 63.54251
48.93000, 84.62817
48.94000, 84.62177
48.95000, 65.38928
48.96000, 56.49753
48.97000, 55.98648
48.98000, 46.43774
48.99000, 54.49005
49.00000, 72.61316
49.01000, 65.91223
49.02000, 35.09036
49.03000, 10.14194
49.04000, 5.342926
49.05000, 17.57529
49.06000, 19.96503
49.07000, 19.26239
49.08000, 29.88965
49.09000, 22.13058
49.10000, 16.45694
49.11000, 3.648041
49.12000, 1.329193
49.13000, 28.18478
49.14000, 55.99130
49.15000, 47.48224
49.16000, 34.92133
49.17000, 50.10968
49.18000, 0.0000000E+00
##END=



