##NAMES=Haiweeite
##RRUFFID=R060732
##IDEAL CHEMISTRY=Ca(U^6+^O_2_)_2_Si_5_O_12_(OH)_2_&#183;6H_2_O
##LOCALITY=Los Azules, Copiapo, Chile
##OWNER=RRUFF
##SOURCE=Bob Jenkins
##DESCRIPTION=Spherical aggregates of yellow acicular crystals
##DIFFRACTION SAMPLE DESCRIPTION=Powder, using Mo radiation
##STATUS=The identification of this mineral is not yet confirmed.
##URL=rruff.info/R060732
6.320000, 0.0000000E+00
6.350000, 2.661804
6.380000, 0.9743960
6.410000, 3.090363
6.440000, 3.733490
6.470000, 9.100952
6.500000, 25.86121
6.530000, 35.32074
6.560000, 36.17114
6.590000, 33.82098
6.620000, 39.25293
6.650000, 43.99768
6.680000, 43.78259
6.710000, 42.39215
6.740000, 47.23083
6.770000, 44.78387
6.800000, 53.13251
6.830000, 42.72290
6.860000, 38.46533
6.890000, 35.79248
6.920000, 40.85309
6.950000, 46.38855
6.980000, 49.00146
7.010000, 50.39343
7.040000, 50.20160
7.070000, 47.56415
7.100000, 51.00208
7.130000, 61.33051
7.160000, 75.89954
7.190000, 95.89844
7.220000, 108.0850
7.250000, 117.4173
7.280000, 129.7057
7.310000, 130.8990
7.340000, 130.8087
7.370000, 130.9909
7.400000, 134.9124
7.430000, 137.3362
7.460000, 130.8796
7.490000, 121.8499
7.520000, 116.7190
7.550000, 109.1265
7.580000, 102.3754
7.610000, 96.27966
7.640000, 91.38629
7.670000, 89.79486
7.700000, 90.08044
7.730000, 85.28503
7.760000, 88.45538
7.790000, 97.26355
7.820000, 108.7586
7.850000, 117.2510
7.880000, 128.2477
7.910000, 142.3702
7.940000, 149.0727
7.970000, 166.5234
8.000000, 176.1851
8.030000, 187.8941
8.060000, 197.5253
8.090000, 194.2951
8.120000, 192.8677
8.150000, 199.5657
8.180000, 206.3591
8.210000, 206.6832
8.240000, 204.0659
8.270000, 194.5747
8.300000, 172.7018
8.330000, 145.4172
8.360000, 128.4416
8.390000, 114.0288
8.420000, 102.3541
8.450000, 95.72662
8.480000, 92.46796
8.510000, 93.64825
8.540000, 92.45306
8.570000, 105.8703
8.600000, 101.9993
8.630000, 114.0917
8.660000, 132.3254
8.690000, 153.4534
8.720000, 179.5167
8.750000, 212.5773
8.780000, 252.6879
8.810000, 282.9044
8.840000, 304.2037
8.870000, 335.8593
8.900000, 385.7797
8.930000, 451.5475
8.960000, 544.3992
8.990000, 649.8138
9.020000, 742.5331
9.050000, 821.7551
9.080000, 878.7294
9.110000, 907.8958
9.140000, 901.9640
9.170000, 868.8141
9.200000, 821.1956
9.230000, 779.3289
9.260000, 731.4234
9.290000, 668.5594
9.320000, 596.6365
9.350000, 515.3886
9.380000, 435.8763
9.410000, 352.5587
9.440000, 274.6163
9.470000, 210.5637
9.500000, 165.3812
9.530000, 127.5205
9.560000, 91.08362
9.590000, 67.00458
9.620000, 56.47015
9.650000, 47.67859
9.680000, 40.72632
9.710000, 34.38165
9.740000, 28.91772
9.770000, 27.10120
9.800000, 22.92596
9.830000, 11.03705
9.860000, 6.366211
9.890000, 12.52930
9.920000, 15.17059
9.950000, 15.56488
9.980000, 15.61340
10.01000, 13.92841
10.04000, 9.366699
10.07000, 0.5807500
10.10000, 11.12201
10.13000, 11.66718
10.16000, 16.75836
10.19000, 16.84698
10.22000, 15.06824
10.25000, 12.99884
10.28000, 4.400818
10.31000, 0.5602420
10.34000, 2.046936
10.37000, 3.713379
10.40000, 1.639221
10.43000, 6.949219
10.46000, 8.198486
10.49000, 16.38629
10.52000, 22.13788
10.55000, 29.99652
10.58000, 41.77576
10.61000, 41.92377
10.64000, 44.83215
10.67000, 48.18048
10.70000, 44.26807
10.73000, 37.87970
10.76000, 37.72394
10.79000, 41.28125
10.82000, 44.76440
10.85000, 50.94397
10.88000, 51.12469
10.91000, 54.48077
10.94000, 64.88019
10.97000, 72.57050
11.00000, 79.94055
11.03000, 87.03729
11.06000, 97.33649
11.09000, 109.2319
11.12000, 128.8653
11.15000, 154.4656
11.18000, 185.9486
11.21000, 223.2802
11.24000, 263.8690
11.27000, 294.7241
11.30000, 326.0002
11.33000, 348.7643
11.36000, 361.1661
11.39000, 357.7054
11.42000, 326.5477
11.45000, 296.0110
11.48000, 277.9404
11.51000, 272.3566
11.54000, 279.3608
11.57000, 284.2098
11.60000, 278.8007
11.63000, 263.0269
11.66000, 235.2722
11.69000, 204.5339
11.72000, 169.3414
11.75000, 126.3218
11.78000, 90.58734
11.81000, 66.64624
11.84000, 53.02612
11.87000, 54.90070
11.90000, 56.38300
11.93000, 64.36096
11.96000, 82.53766
11.99000, 97.86316
12.02000, 119.1474
12.05000, 145.8284
12.08000, 183.0662
12.11000, 235.0863
12.14000, 282.9349
12.17000, 317.3922
12.20000, 343.4446
12.23000, 366.9825
12.26000, 383.2657
12.29000, 389.4939
12.32000, 398.5773
12.35000, 410.8306
12.38000, 419.0364
12.41000, 434.4565
12.44000, 442.8109
12.47000, 454.1904
12.50000, 458.0439
12.53000, 462.7485
12.56000, 465.0215
12.59000, 476.4449
12.62000, 498.2303
12.65000, 525.4438
12.68000, 549.5751
12.71000, 561.6320
12.74000, 563.9514
12.77000, 554.8716
12.80000, 534.9865
12.83000, 502.7087
12.86000, 462.1443
12.89000, 436.6133
12.92000, 398.8173
12.95000, 347.3868
12.98000, 301.3112
13.01000, 264.4250
13.04000, 234.1179
13.07000, 205.4510
13.10000, 181.1815
13.13000, 166.5880
13.16000, 164.0204
13.19000, 173.5125
13.22000, 200.3467
13.25000, 237.3057
13.28000, 277.9776
13.31000, 325.3084
13.34000, 385.5059
13.37000, 443.2651
13.40000, 510.1361
13.43000, 568.1489
13.46000, 612.0530
13.49000, 649.2089
13.52000, 672.2908
13.55000, 684.6585
13.58000, 677.3527
13.61000, 663.8398
13.64000, 623.9129
13.67000, 575.9548
13.70000, 517.1022
13.73000, 456.3320
13.76000, 398.9869
13.79000, 355.3630
13.82000, 323.0870
13.85000, 296.0828
13.88000, 270.4025
13.91000, 252.0143
13.94000, 241.0182
13.97000, 231.2841
14.00000, 233.7121
14.03000, 237.8492
14.06000, 235.9420
14.09000, 228.2188
14.12000, 221.0194
14.15000, 209.8356
14.18000, 202.2745
14.21000, 204.2098
14.24000, 204.8736
14.27000, 206.0097
14.30000, 209.8282
14.33000, 206.6870
14.36000, 208.7415
14.39000, 205.8439
14.42000, 209.1760
14.45000, 207.7921
14.48000, 208.1662
14.51000, 206.5663
14.54000, 200.7852
14.57000, 193.4568
14.60000, 188.7113
14.63000, 186.2245
14.66000, 178.9593
14.69000, 168.0428
14.72000, 158.2099
14.75000, 132.6964
14.78000, 104.4145
14.81000, 83.20105
14.84000, 55.07898
14.87000, 40.74335
14.90000, 20.66876
14.93000, 16.16760
14.96000, 9.322693
14.99000, 3.508850
15.02000, 1.909302
15.05000, 4.778137
15.08000, 5.546997
15.11000, 8.550415
15.14000, 12.04681
15.17000, 14.32898
15.20000, 12.59503
15.23000, 3.067261
15.26000, 12.32257
15.29000, 28.88428
15.32000, 43.17383
15.35000, 58.64508
15.38000, 79.78009
15.41000, 98.59277
15.44000, 113.5953
15.47000, 130.5853
15.50000, 147.9931
15.53000, 166.9086
15.56000, 173.7686
15.59000, 180.1893
15.62000, 183.4553
15.65000, 179.3710
15.68000, 169.9892
15.71000, 156.3079
15.74000, 135.2919
15.77000, 110.9933
15.80000, 85.20917
15.83000, 62.11530
15.86000, 44.13977
15.89000, 25.95752
15.92000, 10.74646
15.95000, 5.661377
15.98000, 15.77155
16.01000, 18.53778
16.04000, 12.97272
16.07000, 11.14172
16.10000, 13.03388
16.13000, 11.12921
16.16000, 13.02185
16.19000, 15.62885
16.22000, 7.088379
16.25000, 4.007507
16.28000, 3.448730
16.31000, 1.654236
16.34000, 6.483765
16.37000, 12.34265
16.40000, 15.26624
16.43000, 16.00012
16.46000, 19.02631
16.49000, 25.66602
16.52000, 31.28021
16.55000, 31.86273
16.58000, 22.45068
16.61000, 9.048767
16.64000, 0.4782100
16.67000, 4.086487
16.70000, 12.98700
16.73000, 24.93091
16.76000, 39.77777
16.79000, 57.31433
16.82000, 78.38495
16.85000, 96.44507
16.88000, 111.9377
16.91000, 127.1566
16.94000, 141.9875
16.97000, 148.0778
17.00000, 165.3049
17.03000, 172.5665
17.06000, 174.5443
17.09000, 172.1725
17.12000, 167.3320
17.15000, 159.2108
17.18000, 143.6639
17.21000, 132.3883
17.24000, 121.0408
17.27000, 107.0057
17.30000, 95.48346
17.33000, 86.17914
17.36000, 75.87036
17.39000, 72.64301
17.42000, 65.36285
17.45000, 62.90875
17.48000, 66.03900
17.51000, 66.13025
17.54000, 63.06982
17.57000, 57.18060
17.60000, 55.70734
17.63000, 60.49023
17.66000, 68.20404
17.69000, 74.97894
17.72000, 79.88782
17.75000, 79.97272
17.78000, 82.82770
17.81000, 88.48157
17.84000, 93.77759
17.87000, 95.89062
17.90000, 94.14453
17.93000, 91.75598
17.96000, 91.86078
17.99000, 100.6456
18.02000, 113.1695
18.05000, 114.0776
18.08000, 117.2762
18.11000, 122.1217
18.14000, 118.6788
18.17000, 121.3380
18.20000, 129.7795
18.23000, 140.1250
18.26000, 154.2625
18.29000, 164.4910
18.32000, 176.8935
18.35000, 190.6459
18.38000, 197.0164
18.41000, 202.9258
18.44000, 214.7714
18.47000, 221.9376
18.50000, 216.0550
18.53000, 208.1793
18.56000, 201.6816
18.59000, 193.8973
18.62000, 183.2245
18.65000, 173.5396
18.68000, 169.0709
18.71000, 165.9648
18.74000, 159.1179
18.77000, 148.8386
18.80000, 135.2874
18.83000, 121.6236
18.86000, 106.7346
18.89000, 87.02386
18.92000, 69.18634
18.95000, 53.41718
18.98000, 39.41211
19.01000, 32.88940
19.04000, 27.74988
19.07000, 26.70264
19.10000, 27.44873
19.13000, 29.13599
19.16000, 31.63544
19.19000, 36.62024
19.22000, 41.60925
19.25000, 44.87946
19.28000, 54.13403
19.31000, 63.01385
19.34000, 71.62787
19.37000, 74.17407
19.40000, 75.61963
19.43000, 80.61646
19.46000, 83.81647
19.49000, 83.63074
19.52000, 81.88843
19.55000, 76.97095
19.58000, 75.11493
19.61000, 72.58221
19.64000, 65.21417
19.67000, 54.20038
19.70000, 40.73523
19.73000, 32.25342
19.76000, 25.70593
19.79000, 19.39124
19.82000, 15.07471
19.85000, 11.67242
19.88000, 10.47150
19.91000, 8.215637
19.94000, 9.693420
19.97000, 10.99921
20.00000, 8.549622
20.03000, 1.877197
20.06000, 3.444153
20.09000, 6.823853
20.12000, 4.994629
20.15000, 0.8225100
20.18000, 0.1325070
20.21000, 0.5429080
20.24000, 3.651855
20.27000, 9.917603
20.30000, 11.70807
20.33000, 10.91394
20.36000, 6.604431
20.39000, 0.1576540
20.42000, 7.379578
20.45000, 14.68079
20.48000, 28.81427
20.51000, 46.55200
20.54000, 58.03998
20.57000, 72.37830
20.60000, 84.31384
20.63000, 94.37268
20.66000, 110.3959
20.69000, 123.4454
20.72000, 134.5682
20.75000, 140.3604
20.78000, 137.2618
20.81000, 131.0535
20.84000, 122.6157
20.87000, 108.1673
20.90000, 86.49420
20.93000, 72.82153
20.96000, 67.26318
20.99000, 65.28326
21.02000, 65.12067
21.05000, 67.23273
21.08000, 68.30731
21.11000, 72.28467
21.14000, 80.82367
21.17000, 97.07916
21.20000, 114.4684
21.23000, 133.9162
21.26000, 149.8549
21.29000, 157.1918
21.32000, 162.8685
21.35000, 171.6050
21.38000, 175.2640
21.41000, 178.9943
21.44000, 182.4968
21.47000, 190.3251
21.50000, 197.3779
21.53000, 202.5336
21.56000, 205.7903
21.59000, 207.4874
21.62000, 205.3356
21.65000, 207.4641
21.68000, 204.2551
21.71000, 203.2480
21.74000, 204.1310
21.77000, 200.9902
21.80000, 191.9905
21.83000, 179.7676
21.86000, 166.1990
21.89000, 154.8451
21.92000, 141.5038
21.95000, 132.1149
21.98000, 128.1526
22.01000, 123.5170
22.04000, 122.5959
22.07000, 121.9453
22.10000, 122.6533
22.13000, 120.1400
22.16000, 115.4142
22.19000, 102.7534
22.22000, 91.66052
22.25000, 89.75745
22.28000, 93.62927
22.31000, 97.66962
22.34000, 105.2866
22.37000, 109.5496
22.40000, 117.0394
22.43000, 122.6226
22.46000, 132.5775
22.49000, 139.3940
22.52000, 147.2874
22.55000, 158.3074
22.58000, 164.9667
22.61000, 169.4067
22.64000, 172.7128
22.67000, 173.2474
22.70000, 172.6339
22.73000, 169.4682
22.76000, 166.3422
22.79000, 159.8319
22.82000, 151.0904
22.85000, 146.3356
22.88000, 140.4356
22.91000, 136.5923
22.94000, 132.0899
22.97000, 126.4592
23.00000, 117.0723
23.03000, 105.6062
23.06000, 93.44489
23.09000, 80.57831
23.12000, 69.50861
23.15000, 67.62799
23.18000, 65.51984
23.21000, 63.86792
23.24000, 62.33191
23.27000, 57.76752
23.30000, 54.99902
23.33000, 52.09399
23.36000, 53.33911
23.39000, 59.03394
23.42000, 62.24731
23.45000, 66.91467
23.48000, 69.43475
23.51000, 69.81946
23.54000, 71.74274
23.57000, 75.36200
23.60000, 78.60175
23.63000, 77.47498
23.66000, 77.80035
23.69000, 77.26996
23.72000, 70.95007
23.75000, 68.43146
23.78000, 64.21442
23.81000, 58.53503
23.84000, 54.88409
23.87000, 51.41211
23.90000, 44.89337
23.93000, 43.74860
23.96000, 33.14917
23.99000, 27.18719
24.02000, 21.22034
24.05000, 21.44067
24.08000, 24.77313
24.11000, 24.91583
24.14000, 29.83569
24.17000, 33.40479
24.20000, 45.14502
24.23000, 47.12982
24.26000, 48.26135
24.29000, 53.82483
24.32000, 48.24182
24.35000, 46.42297
24.38000, 51.00824
24.41000, 55.92163
24.44000, 58.98334
24.47000, 54.10406
24.50000, 49.55402
24.53000, 50.09515
24.56000, 54.76642
24.59000, 57.86670
24.62000, 62.12024
24.65000, 60.09363
24.68000, 56.81940
24.71000, 54.12354
24.74000, 47.86786
24.77000, 40.33899
24.80000, 30.99536
24.83000, 23.45697
24.86000, 16.46783
24.89000, 8.987671
24.92000, 4.019836
24.95000, 3.793823
24.98000, 4.687500
25.01000, 0.8183590
25.04000, 4.192932
25.07000, 3.758240
25.10000, 1.404175
25.13000, 1.535583
25.16000, 1.287109
25.19000, 1.792114
25.22000, 6.484131
25.25000, 0.4625850
25.28000, 1.470825
25.31000, 4.974915
25.34000, 1.371704
25.37000, 5.159485
25.40000, 9.891296
25.43000, 11.83167
25.46000, 14.60663
25.49000, 26.05920
25.52000, 37.79431
25.55000, 44.84912
25.58000, 54.54041
25.61000, 62.69427
25.64000, 67.69281
25.67000, 71.85590
25.70000, 77.27344
25.73000, 82.39465
25.76000, 80.22144
25.79000, 80.93872
25.82000, 86.50848
25.85000, 90.74585
25.88000, 91.74976
25.91000, 83.40216
25.94000, 76.40894
25.97000, 78.88733
26.00000, 79.42700
26.03000, 76.28912
26.06000, 82.00067
26.09000, 88.12762
26.12000, 91.31378
26.15000, 95.42041
26.18000, 96.44269
26.21000, 93.27802
26.24000, 95.73975
26.27000, 93.68298
26.30000, 91.17859
26.33000, 90.80096
26.36000, 92.70874
26.39000, 90.84686
26.42000, 88.32336
26.45000, 87.08228
26.48000, 83.01947
26.51000, 75.35895
26.54000, 65.40283
26.57000, 58.73407
26.60000, 52.43549
26.63000, 40.81836
26.66000, 31.77863
26.69000, 30.79822
26.72000, 28.69873
26.75000, 24.26807
26.78000, 18.61725
26.81000, 16.61865
26.84000, 15.72021
26.87000, 16.34198
26.90000, 18.88910
26.93000, 23.13739
26.96000, 29.03894
26.99000, 36.23053
27.02000, 38.94299
27.05000, 37.45258
27.08000, 37.09912
27.11000, 42.44061
27.14000, 48.18713
27.17000, 54.87067
27.20000, 62.01007
27.23000, 74.31598
27.26000, 82.26050
27.29000, 81.59863
27.32000, 78.14478
27.35000, 78.05457
27.38000, 83.15015
27.41000, 86.45764
27.44000, 85.96674
27.47000, 84.03595
27.50000, 74.55457
27.53000, 64.57758
27.56000, 62.14874
27.59000, 55.58044
27.62000, 46.51801
27.65000, 43.09045
27.68000, 42.97766
27.71000, 36.75372
27.74000, 28.14972
27.77000, 25.22046
27.80000, 19.17902
27.83000, 18.10541
27.86000, 15.61163
27.89000, 16.49750
27.92000, 15.36877
27.95000, 16.55475
27.98000, 15.95392
28.01000, 19.12292
28.04000, 21.71570
28.07000, 20.35620
28.10000, 15.84937
28.13000, 11.27423
28.16000, 4.606934
28.19000, 3.187195
28.22000, 1.286987
28.25000, 0.5969240
28.28000, 2.879822
28.31000, 2.058167
28.34000, 0.8418580
28.37000, 1.564514
28.40000, 3.438171
28.43000, 4.326233
28.46000, 6.662170
28.49000, 9.611145
28.52000, 5.798889
28.55000, 7.931274
28.58000, 8.948486
28.61000, 11.05896
28.64000, 12.62256
28.67000, 11.25165
28.70000, 7.888000
28.73000, 2.601868
28.76000, 1.159058
28.79000, 6.568787
28.82000, 16.45386
28.85000, 23.42657
28.88000, 26.90936
28.91000, 24.85345
28.94000, 26.12134
28.97000, 27.82220
29.00000, 31.38165
29.03000, 31.67267
29.06000, 33.16650
29.09000, 38.44678
29.12000, 37.84473
29.15000, 37.03821
29.18000, 40.28339
29.21000, 42.58215
29.24000, 41.25751
29.27000, 42.16449
29.30000, 43.46515
29.33000, 44.57526
29.36000, 39.97900
29.39000, 35.53937
29.42000, 37.66937
29.45000, 34.22791
29.48000, 38.39404
29.51000, 33.20972
29.54000, 33.64703
29.57000, 34.62579
29.60000, 39.97528
29.63000, 45.13922
29.66000, 43.30688
29.69000, 45.95160
29.72000, 49.77148
29.75000, 53.63776
29.78000, 55.24994
29.81000, 50.98029
29.84000, 48.40009
29.87000, 49.98700
29.90000, 49.68707
29.93000, 51.34332
29.96000, 54.89020
29.99000, 53.93372
30.02000, 56.43463
30.05000, 57.41516
30.08000, 53.80621
30.11000, 48.92181
30.14000, 46.91681
30.17000, 52.96948
30.20000, 60.31146
30.23000, 62.78430
30.26000, 69.49933
30.29000, 72.98779
30.32000, 72.91260
30.35000, 72.60669
30.38000, 76.79688
30.41000, 81.42218
30.44000, 91.77930
30.47000, 103.5334
30.50000, 106.0540
30.53000, 107.5958
30.56000, 107.3832
30.59000, 108.7864
30.62000, 106.2402
30.65000, 109.4489
30.68000, 106.0927
30.71000, 105.7620
30.74000, 97.50128
30.77000, 98.01367
30.80000, 93.55664
30.83000, 86.75085
30.86000, 86.62970
30.89000, 81.67450
30.92000, 76.81152
30.95000, 79.86420
30.98000, 84.65009
31.01000, 91.73651
31.04000, 93.79132
31.07000, 96.45178
31.10000, 100.8865
31.13000, 103.2577
31.16000, 105.9021
31.19000, 105.4098
31.22000, 100.1590
31.25000, 93.62634
31.28000, 90.85504
31.31000, 82.93701
31.34000, 73.57507
31.37000, 73.30414
31.40000, 71.85266
31.43000, 69.28363
31.46000, 62.25281
31.49000, 60.98199
31.52000, 57.40186
31.55000, 53.72644
31.58000, 53.26447
31.61000, 47.16357
31.64000, 42.93713
31.67000, 42.88696
31.70000, 42.27118
31.73000, 38.58667
31.76000, 40.16766
31.79000, 40.20081
31.82000, 40.71265
31.85000, 46.09863
31.88000, 45.98853
31.91000, 42.16284
31.94000, 38.53882
31.97000, 34.32697
32.00000, 28.74841
32.03000, 25.77606
32.06000, 25.99506
32.09000, 26.08325
32.12000, 26.92310
32.15000, 27.97180
32.18000, 26.45929
32.21000, 22.95001
32.24000, 19.31720
32.27000, 13.46997
32.30000, 10.50500
32.33000, 12.06085
32.36000, 20.76361
32.39000, 26.91504
32.42000, 26.55652
32.45000, 21.25806
32.48000, 15.55267
32.51000, 24.21332
32.54000, 26.98901
32.57000, 27.00360
32.60000, 24.29193
32.63000, 22.59021
32.66000, 31.89825
32.69000, 36.66309
32.72000, 36.80280
32.75000, 43.26031
32.78000, 40.84662
32.81000, 46.39886
32.84000, 37.48090
32.87000, 32.73779
32.90000, 31.92151
32.93000, 32.27808
32.96000, 31.22046
32.99000, 27.19269
33.02000, 21.85083
33.05000, 19.59570
33.08000, 16.57147
33.11000, 10.72211
33.14000, 7.907593
33.17000, 8.758911
33.20000, 9.356201
33.23000, 3.160217
33.26000, 2.677917
33.29000, 0.4956670
33.32000, 2.256104
33.35000, 0.6475830
33.38000, 2.432983
33.41000, 3.765320
33.44000, 0.5615840
33.47000, 1.057434
33.50000, 0.2482300
33.53000, 0.8746340
33.56000, 32.49231
33.59000, 16.34308
33.62000, 27.86334
33.65000, 3.867615
33.68000, 6.592834
33.71000, 4.202942
33.74000, 3.736877
33.77000, 5.213806
33.80000, 0.4583740
33.83000, 3.649109
33.86000, 5.865906
33.89000, 6.254883
33.92000, 5.702332
33.95000, 3.889893
33.98000, 1.403625
34.01000, 0.3629150
34.04000, 2.373047
34.07000, 4.984253
34.10000, 8.578308
34.13000, 10.48798
34.16000, 10.41016
34.19000, 14.49524
34.22000, 18.55341
34.25000, 17.79742
34.28000, 15.80157
34.31000, 18.02075
34.34000, 18.58801
34.37000, 14.17310
34.40000, 12.84308
34.43000, 13.64453
34.46000, 17.74255
34.49000, 22.39520
34.52000, 21.54236
34.55000, 21.07550
34.58000, 26.10315
34.61000, 30.41473
34.64000, 29.70758
34.67000, 33.39844
34.70000, 38.95410
34.73000, 38.11169
34.76000, 38.55310
34.79000, 40.68536
34.82000, 40.89752
34.85000, 44.07861
34.88000, 43.59454
34.91000, 48.80231
34.94000, 54.51898
34.97000, 62.42853
35.00000, 72.54211
35.03000, 77.07245
35.06000, 73.55371
35.09000, 69.62787
35.12000, 64.25104
35.15000, 55.25397
35.18000, 46.39984
35.21000, 48.67163
35.24000, 53.62543
35.27000, 51.95203
35.30000, 50.02155
35.33000, 41.04706
35.36000, 30.38849
35.39000, 26.55804
35.42000, 29.09564
35.45000, 32.02661
35.48000, 34.96564
35.51000, 36.38171
35.54000, 35.37213
35.57000, 35.14447
35.60000, 36.24725
35.63000, 42.31079
35.66000, 46.56061
35.69000, 45.71057
35.72000, 45.26764
35.75000, 48.21338
35.78000, 47.82715
35.81000, 47.37939
35.84000, 48.00354
35.87000, 42.89618
35.90000, 38.15857
35.93000, 36.66919
35.96000, 35.12317
35.99000, 32.25507
36.02000, 25.23090
36.05000, 20.79675
36.08000, 18.15155
36.11000, 15.64624
36.14000, 17.82587
36.17000, 21.22552
36.20000, 19.50903
36.23000, 21.50159
36.26000, 19.93408
36.29000, 16.05652
36.32000, 11.73596
36.35000, 11.07526
36.38000, 9.428589
36.41000, 11.47162
36.44000, 16.02484
36.47000, 18.44000
36.50000, 12.45404
36.53000, 8.118164
36.56000, 9.717163
36.59000, 15.41315
36.62000, 17.60406
36.65000, 18.96991
36.68000, 20.09674
36.71000, 21.39850
36.74000, 22.04266
36.77000, 19.22089
36.80000, 22.99768
36.83000, 23.95221
36.86000, 23.91315
36.89000, 28.33850
36.92000, 33.63794
36.95000, 32.34595
36.98000, 32.10034
37.01000, 29.03979
37.04000, 31.65466
37.07000, 29.83398
37.10000, 22.70258
37.13000, 24.46808
37.16000, 19.53552
37.19000, 13.71088
37.22000, 15.96631
37.25000, 14.01581
37.28000, 14.36115
37.31000, 14.43066
37.34000, 12.79608
37.37000, 15.79761
37.40000, 11.00385
37.43000, 3.905334
37.46000, 4.928101
37.49000, 5.355835
37.52000, 3.758850
37.55000, 10.29327
37.58000, 13.55798
37.61000, 6.623474
37.64000, 2.641479
37.67000, 1.164673
37.70000, 0.5651250
37.73000, 1.386841
37.76000, 2.094238
37.79000, 4.111084
37.82000, 2.832581
37.85000, 0.8392330
37.88000, 2.333191
37.91000, 5.836304
37.94000, 9.422302
37.97000, 2.252258
38.00000, 3.185791
38.03000, 5.424988
38.06000, 5.816650
38.09000, 0.4262700
38.12000, 2.021973
38.15000, 1.013611
38.18000, 0.5830690
38.21000, 2.1423001E-02
38.24000, 5.119263
38.27000, 14.37805
38.30000, 15.81573
38.33000, 16.98456
38.36000, 13.17529
38.39000, 8.193970
38.42000, 8.790710
38.45000, 7.467407
38.48000, 5.091064
38.51000, 4.179749
38.54000, 7.275330
38.57000, 11.56067
38.60000, 21.59351
38.63000, 25.18915
38.66000, 31.25073
38.69000, 37.56427
38.72000, 42.56879
38.75000, 40.70129
38.78000, 40.04785
38.81000, 42.38837
38.84000, 42.69086
38.87000, 44.95929
38.90000, 43.90228
38.93000, 42.45197
38.96000, 42.06775
38.99000, 36.80212
39.02000, 36.66754
39.05000, 32.63300
39.08000, 31.10339
39.11000, 29.68176
39.14000, 31.47705
39.17000, 37.76239
39.20000, 40.80670
39.23000, 41.96899
39.26000, 38.62726
39.29000, 29.31329
39.32000, 23.36035
39.35000, 21.36841
39.38000, 17.14136
39.41000, 15.85107
39.44000, 16.02374
39.47000, 14.21521
39.50000, 15.59149
39.53000, 15.17078
39.56000, 13.58881
39.59000, 20.03168
39.62000, 20.42865
39.65000, 16.69781
39.68000, 17.26208
39.71000, 12.35828
39.74000, 11.63525
39.77000, 16.04517
39.80000, 22.09381
39.83000, 30.72931
39.86000, 29.54974
39.89000, 22.49384
39.92000, 18.24988
39.95000, 9.359802
39.98000, 1.883423
40.01000, 6.919006
40.04000, 9.295288
40.07000, 9.811401
40.10000, 8.800537
40.13000, 9.636108
40.16000, 4.576111
40.19000, 8.093689
40.22000, 5.624084
40.25000, 2.690308
40.28000, 4.534363
40.31000, 9.496277
40.34000, 15.25494
40.37000, 15.63550
40.40000, 14.84302
40.43000, 19.61517
40.46000, 21.98395
40.49000, 22.54681
40.52000, 24.12097
40.55000, 22.29120
40.58000, 21.68994
40.61000, 18.16681
40.64000, 15.51099
40.67000, 16.06976
40.70000, 16.94885
40.73000, 16.10376
40.76000, 20.87463
40.79000, 27.18787
40.82000, 23.06976
40.85000, 15.93274
40.88000, 13.00378
40.91000, 17.62854
40.94000, 16.75311
40.97000, 15.11053
41.00000, 14.83496
41.03000, 9.331116
41.06000, 6.592834
41.09000, 5.759949
41.12000, 5.751404
41.15000, 6.995789
41.18000, 5.567383
41.21000, 4.177734
41.24000, 5.987976
41.27000, 7.261047
41.30000, 0.6217040
41.33000, 0.7543330
41.36000, 8.098999
41.39000, 4.255981
41.42000, 5.825439
41.45000, 9.132080
41.48000, 3.439514
41.51000, 8.461670
41.54000, 10.53009
41.57000, 13.48975
41.60000, 15.02679
41.63000, 15.30621
41.66000, 11.10968
41.69000, 13.05304
41.72000, 12.70551
41.75000, 12.25562
41.78000, 15.01477
41.81000, 11.82269
41.84000, 14.54419
41.87000, 14.92163
41.90000, 16.37183
41.93000, 15.49908
41.96000, 15.34363
41.99000, 17.51190
42.02000, 18.39331
42.05000, 17.25281
42.08000, 18.77087
42.11000, 15.53876
42.14000, 19.18311
42.17000, 20.60394
42.20000, 22.50342
42.23000, 24.60565
42.26000, 24.95984
42.29000, 26.07483
42.32000, 24.92572
42.35000, 21.25574
42.38000, 21.00958
42.41000, 20.73633
42.44000, 15.64508
42.47000, 6.360718
42.50000, 2.620300
42.53000, 6.915771
42.56000, 15.60126
42.59000, 17.42560
42.62000, 16.42688
42.65000, 15.30609
42.68000, 19.21832
42.71000, 21.36237
42.74000, 18.98035
42.77000, 14.89929
42.80000, 14.07013
42.83000, 12.10602
42.86000, 16.01666
42.89000, 19.71033
42.92000, 24.04291
42.95000, 27.00739
42.98000, 29.93079
43.01000, 25.60016
43.04000, 21.79950
43.07000, 22.86572
43.10000, 22.92279
43.13000, 20.33789
43.16000, 17.80084
43.19000, 11.40912
43.22000, 11.62860
43.25000, 14.27814
43.28000, 11.30548
43.31000, 17.02271
43.34000, 22.12592
43.37000, 20.81195
43.40000, 18.08704
43.43000, 17.27789
43.46000, 19.02966
43.49000, 19.90344
43.52000, 23.14801
43.55000, 23.82654
43.58000, 21.30322
43.61000, 20.09857
43.64000, 14.18298
43.67000, 6.831177
43.70000, 7.538391
43.73000, 17.68414
43.76000, 27.44482
43.79000, 31.90143
43.82000, 33.45386
43.85000, 32.61432
43.88000, 30.42963
43.91000, 31.85480
43.94000, 27.96387
43.97000, 19.79504
44.00000, 15.16748
44.03000, 5.253174
44.06000, 23.06281
44.09000, 34.87463
44.12000, 40.23840
44.15000, 37.99158
44.18000, 31.77502
44.21000, 18.79962
44.24000, 30.35693
44.27000, 27.19757
44.30000, 22.81720
44.33000, 20.31726
44.36000, 20.51746
44.39000, 16.47827
44.42000, 17.29541
44.45000, 16.09326
44.48000, 17.35583
44.51000, 17.89020
44.54000, 17.66138
44.57000, 16.24438
44.60000, 21.70013
44.63000, 21.91278
44.66000, 19.36719
44.69000, 13.10333
44.72000, 5.356384
44.75000, 7.413086
44.78000, 11.23572
44.81000, 12.65503
44.84000, 18.16815
44.87000, 22.97211
44.90000, 24.93463
44.93000, 28.97791
44.96000, 26.13898
44.99000, 12.08044
45.02000, 4.761169
45.05000, 7.771362
45.08000, 7.714722
45.11000, 10.87311
45.14000, 9.195496
45.17000, 10.57220
45.20000, 5.239014
45.23000, 9.3627997E-02
45.26000, 2.666260
45.29000, 6.579163
45.32000, 8.368896
45.35000, 10.44873
45.38000, 7.031555
45.41000, 5.167419
45.44000, 4.777344
45.47000, 9.109070
45.50000, 15.30469
45.53000, 20.63416
45.56000, 21.19562
45.59000, 19.28094
45.62000, 14.74414
45.65000, 12.03827
45.68000, 12.14838
45.71000, 20.75842
45.74000, 26.15533
45.77000, 18.58118
45.80000, 14.69092
45.83000, 19.71454
45.86000, 20.68518
45.89000, 21.08765
45.92000, 21.30707
45.95000, 23.21173
45.98000, 23.66730
46.01000, 26.01984
46.04000, 26.02191
46.07000, 25.41284
46.10000, 27.00177
46.13000, 20.14062
46.16000, 16.05829
46.19000, 20.57306
46.22000, 21.25250
46.25000, 18.60400
46.28000, 15.85846
46.31000, 14.65875
46.34000, 15.71210
46.37000, 17.49518
46.40000, 17.59827
46.43000, 12.11127
46.46000, 6.274231
46.49000, 10.60608
46.52000, 11.82092
46.55000, 10.85663
46.58000, 11.15515
46.61000, 8.305664
46.64000, 10.14716
46.67000, 12.37854
46.70000, 7.111877
46.73000, 5.174072
46.76000, 0.8388060
46.79000, 4.172424
46.82000, 1.138611
46.85000, 3.442322
46.88000, 4.238159
46.91000, 4.201965
46.94000, 3.656677
46.97000, 3.664001
47.00000, 0.8701170
47.03000, 3.247192
47.06000, 1.659241
47.09000, 3.114136
47.12000, 2.276672
47.15000, 1.591248
47.18000, 3.209961
47.21000, 4.408447
47.24000, 13.05603
47.27000, 8.126099
47.30000, 10.27679
47.33000, 9.950928
47.36000, 2.063965
47.39000, 1.476013
47.42000, 6.706848
47.45000, 1.847717
47.48000, 1.196472
47.51000, 4.892090
47.54000, 1.293518
47.57000, 2.796997
47.60000, 2.044556
47.63000, 0.8949580
47.66000, 5.312744
47.69000, 3.495667
47.72000, 2.289734
47.75000, 0.6264650
47.78000, 0.6740110
47.81000, 1.792236
47.84000, 7.8125000E-02
47.87000, 2.182129
47.90000, 0.3379520
47.93000, 1.318481
47.96000, 2.145874
47.99000, 1.014954
48.02000, 1.046021
48.05000, 1.475952
48.08000, 3.217590
48.11000, 13.02655
48.14000, 8.223267
48.17000, 9.800842
48.20000, 17.00641
48.23000, 11.34082
48.26000, 7.040161
48.29000, 13.78650
48.32000, 9.931763
48.35000, 5.628845
48.38000, 6.913025
48.41000, 3.994080
48.44000, 6.820129
48.47000, 6.713440
48.50000, 9.916565
48.53000, 9.341003
48.56000, 14.70776
48.59000, 17.61676
48.62000, 13.72351
48.65000, 13.43683
48.68000, 12.61713
48.71000, 14.15326
48.74000, 18.77692
48.77000, 14.41003
48.80000, 10.31012
48.83000, 17.57098
48.86000, 20.46381
48.89000, 17.34460
48.92000, 16.56622
48.95000, 12.47778
48.98000, 11.43127
49.01000, 10.53204
49.04000, 8.346375
49.07000, 10.97302
49.10000, 12.21118
49.13000, 14.39917
49.16000, 16.83789
49.19000, 19.12500
49.22000, 21.37854
49.25000, 24.00647
49.28000, 25.08130
49.31000, 26.23401
49.34000, 24.53363
49.37000, 24.25708
49.40000, 18.91248
49.43000, 13.67267
49.46000, 9.476868
49.49000, 10.85693
49.52000, 9.780945
49.55000, 14.95782
49.58000, 26.43054
49.61000, 38.60120
49.64000, 41.04175
49.67000, 30.08026
49.70000, 22.26550
49.73000, 20.98376
49.76000, 21.13770
49.79000, 17.72333
49.82000, 19.81732
49.85000, 21.00323
49.88000, 23.15106
49.91000, 23.38971
49.94000, 16.20032
49.97000, 10.82379
50.00000, 4.741211
50.03000, 2.868530
50.06000, 5.852783
50.09000, 10.66187
50.12000, 16.63495
50.15000, 17.21191
50.18000, 16.41388
50.21000, 17.15155
50.24000, 13.68134
50.27000, 10.93799
50.30000, 2.960510
50.33000, 3.120056
50.36000, 4.279114
50.39000, 1.991272
50.42000, 2.164612
50.45000, 6.015381
50.48000, 1.199219
50.51000, 1.248840
50.54000, 6.115723
50.57000, 6.386414
50.60000, 5.823914
50.63000, 8.365356
50.66000, 6.350769
50.69000, 0.8382570
50.72000, 2.483459
50.75000, 4.629761
50.78000, 8.643005
50.81000, 6.552185
50.84000, 3.9246000E-02
50.87000, 1.384094
50.90000, 1.317505
50.93000, 9.072083
50.96000, 8.196045
50.99000, 11.36542
51.02000, 11.04498
51.05000, 11.07037
51.08000, 10.19879
51.11000, 4.686096
51.14000, 3.515381
51.17000, 6.717224
51.20000, 3.971436
51.23000, 7.907104
51.26000, 13.25568
51.29000, 20.42419
51.32000, 21.14551
51.35000, 15.61340
51.38000, 12.46448
51.41000, 14.33252
51.44000, 13.03119
51.47000, 9.733704
51.50000, 9.262634
51.53000, 16.66394
51.56000, 22.56476
51.59000, 14.39032
51.62000, 6.505371
51.65000, 3.533508
51.68000, 7.260681
51.71000, 12.32898
51.74000, 11.72833
51.77000, 14.74561
51.80000, 16.40784
51.83000, 16.92126
51.86000, 18.75665
51.89000, 19.82269
51.92000, 20.01135
51.95000, 16.12726
51.98000, 9.174316
52.01000, 1.054504
52.04000, 1.081787
52.07000, 1.455994
52.10000, 6.423950
52.13000, 1.035706
52.16000, 5.650574
52.19000, 9.152527
52.22000, 7.239563
52.25000, 4.764648
52.28000, 0.1162110
52.31000, 1.669067
52.34000, 3.216187
52.37000, 5.974548
52.40000, 7.019897
52.43000, 7.312439
52.46000, 7.902771
52.49000, 6.723877
52.52000, 7.508667
52.55000, 2.058594
52.58000, 1.939575
52.61000, 3.817444
52.64000, 3.633179
52.67000, 4.712708
52.70000, 8.013611
52.73000, 10.90698
52.76000, 13.24908
52.79000, 13.72742
52.82000, 16.17224
52.85000, 17.62506
52.88000, 18.91187
52.91000, 21.22009
52.94000, 21.26990
52.97000, 23.29553
53.00000, 24.34729
53.03000, 25.65192
53.06000, 25.99066
53.09000, 26.45459
53.12000, 27.62048
53.15000, 28.19232
53.18000, 27.90619
53.21000, 28.44208
53.24000, 27.14062
53.27000, 27.20349
53.30000, 27.77942
53.33000, 27.03387
53.36000, 27.14325
53.39000, 26.62170
53.42000, 24.72998
53.45000, 23.09204
53.48000, 22.55029
53.51000, 14.64966
53.54000, 18.18115
53.57000, 16.36182
53.60000, 7.906555
53.63000, 3.822327
53.66000, 8.683411
53.69000, 13.31848
53.72000, 20.79572
53.75000, 24.06012
53.78000, 21.47961
53.81000, 20.56531
53.84000, 19.68811
53.87000, 16.64795
53.90000, 16.06110
53.93000, 14.92932
53.96000, 16.24908
53.99000, 12.42755
54.02000, 11.46893
54.05000, 5.623901
54.08000, 1.512939
54.11000, 2.571899
54.14000, 5.682190
54.17000, 13.85449
54.20000, 16.53394
54.23000, 17.22864
54.26000, 16.28558
54.29000, 12.57501
54.32000, 14.73132
54.35000, 12.98499
54.38000, 10.43854
54.41000, 10.43359
54.44000, 6.679077
54.47000, 0.5970460
54.50000, 1.743652
54.53000, 0.4245610
54.56000, 5.3589001E-02
54.59000, 10.37476
54.62000, 15.91016
54.65000, 12.52185
54.68000, 16.99268
54.71000, 17.83386
54.74000, 16.50720
54.77000, 20.71277
54.80000, 19.83856
54.83000, 21.01263
54.86000, 19.33942
54.89000, 21.03467
54.92000, 17.64276
54.95000, 16.00250
54.98000, 14.74280
55.01000, 10.09998
55.04000, 1.136475
55.07000, 0.2320560
55.10000, 0.7139890
55.13000, 3.039673
55.16000, 10.06195
55.19000, 21.15826
55.22000, 20.82788
55.25000, 23.14673
55.28000, 22.62982
55.31000, 27.02515
55.34000, 26.75696
55.37000, 34.71338
55.40000, 25.60315
55.43000, 26.44275
55.46000, 20.70343
55.49000, 12.16589
55.52000, 7.325989
55.55000, 16.36841
55.58000, 24.73602
55.61000, 27.76184
55.64000, 26.11896
55.67000, 25.72864
55.70000, 23.53302
55.73000, 18.70270
55.76000, 17.25787
55.79000, 17.06128
55.82000, 14.99506
55.85000, 8.312073
55.88000, 9.974487
55.91000, 9.103516
55.94000, 11.11835
55.97000, 13.20258
56.00000, 17.96796
56.03000, 14.52972
56.06000, 6.466858
56.09000, 4.375183
56.12000, 14.18994
56.15000, 23.42291
56.18000, 23.52820
56.21000, 13.61646
56.24000, 12.12091
56.27000, 5.981262
56.30000, 2.851135
56.33000, 2.521423
56.36000, 0.7744140
56.39000, 0.4772950
56.42000, 2.864929
56.45000, 3.162598
56.48000, 2.756592
56.51000, 3.459961
56.54000, 8.966675
56.57000, 14.15186
56.60000, 13.69232
56.63000, 13.34222
56.66000, 9.518616
56.69000, 7.086243
56.72000, 11.47235
56.75000, 11.75281
56.78000, 9.309692
56.81000, 12.81799
56.84000, 15.93378
56.87000, 0.9538570
56.90000, 3.252563
56.93000, 4.354980
56.96000, 1.563904
56.99000, 13.74194
57.02000, 11.94720
57.05000, 6.691956
57.08000, 11.79810
57.11000, 6.499756
57.14000, 5.829895
57.17000, 8.326477
57.20000, 1.586487
57.23000, 2.528992
57.26000, 8.422058
57.29000, 5.979614
57.32000, 6.026672
57.35000, 3.919250
57.38000, 8.804260
57.41000, 8.383850
57.44000, 9.402466
57.47000, 11.56757
57.50000, 10.74951
57.53000, 11.82611
57.56000, 11.55426
57.59000, 11.38068
57.62000, 10.11475
57.65000, 9.572083
57.68000, 8.881714
57.71000, 6.835632
57.74000, 7.246399
57.77000, 4.650940
57.80000, 3.628235
57.83000, 7.469055
57.86000, 9.090332
57.89000, 5.966003
57.92000, 7.927856
57.95000, 12.36176
57.98000, 18.57202
58.01000, 21.87976
58.04000, 22.32513
58.07000, 23.58032
58.10000, 11.56824
58.13000, 18.75525
58.16000, 16.52759
58.19000, 8.099609
58.22000, 13.99725
58.25000, 20.28925
58.28000, 15.60071
58.31000, 13.42267
58.34000, 15.29767
58.37000, 9.917114
58.40000, 12.93707
58.43000, 18.73346
58.46000, 16.72522
58.49000, 19.45172
58.52000, 14.27844
58.55000, 7.751282
58.58000, 9.454651
58.61000, 4.1443001E-02
58.64000, 7.918396
58.67000, 2.478638
58.70000, 5.604980
58.73000, 10.99774
58.76000, 9.534668
58.79000, 6.514038
58.82000, 6.857910
58.85000, 7.871216
58.88000, 5.452026
58.91000, 6.520386
58.94000, 0.8107910
58.97000, 0.9486080
59.00000, 2.785950
59.03000, 3.551636
59.06000, 3.448547
59.09000, 1.589844
59.12000, 2.407166
59.15000, 3.894653
59.18000, 2.996765
59.21000, 0.6094360
59.24000, 2.978638
59.27000, 10.94080
59.30000, 18.88959
59.33000, 10.89606
59.36000, 3.593994
59.39000, 8.344604
59.42000, 9.435730
59.45000, 10.67657
59.48000, 21.86206
59.51000, 28.88959
59.54000, 29.88782
59.57000, 25.43555
59.60000, 13.89697
59.63000, 5.002014
59.66000, 4.377563
59.69000, 3.286743
59.72000, 7.123474
59.75000, 6.641541
59.78000, 8.224304
59.81000, 8.203369
59.84000, 10.32153
59.87000, 9.107300
59.90000, 8.529053
59.93000, 15.26978
59.96000, 19.09265
59.99000, 23.19806
60.02000, 22.86835
60.05000, 20.42346
60.08000, 27.36035
60.11000, 29.52399
60.14000, 24.15759
60.17000, 22.13495
60.20000, 17.28821
60.23000, 14.17542
60.26000, 16.40149
60.29000, 16.76648
60.32000, 17.86548
60.35000, 19.72943
60.38000, 27.23535
60.41000, 29.18427
60.44000, 18.66913
60.47000, 4.086182
60.50000, 0.2084960
60.53000, 5.954468
60.56000, 8.540222
60.59000, 10.30676
60.62000, 11.42377
60.65000, 13.66235
60.68000, 10.10760
60.71000, 8.027100
60.74000, 6.601807
60.77000, 6.925415
60.80000, 8.599243
60.83000, 11.21057
60.86000, 18.94550
60.89000, 24.96704
60.92000, 21.13818
60.95000, 10.59320
60.98000, 5.699036
61.01000, 8.256531
61.04000, 10.94061
61.07000, 12.28033
61.10000, 15.78333
61.13000, 22.43262
61.16000, 22.26532
61.19000, 19.63354
61.22000, 19.48346
61.25000, 12.89709
61.28000, 8.487793
61.31000, 5.062012
61.34000, 10.66797
61.37000, 13.87958
61.40000, 12.87524
61.43000, 14.52496
61.46000, 26.39032
61.49000, 30.46198
61.52000, 31.77502
61.55000, 30.30847
61.58000, 20.64374
61.61000, 17.67590
61.64000, 16.22705
61.67000, 15.43640
61.70000, 18.30383
61.73000, 18.44312
61.76000, 23.81104
61.79000, 22.25189
61.82000, 18.48364
61.85000, 21.85858
61.88000, 16.32129
61.91000, 11.23492
61.94000, 6.785400
61.97000, 12.83392
62.00000, 10.99158
62.03000, 5.341492
62.06000, 13.94489
62.09000, 20.92145
62.12000, 22.87445
62.15000, 27.38550
62.18000, 27.96857
62.21000, 19.90771
62.24000, 19.88586
62.27000, 13.97919
62.30000, 14.19653
62.33000, 24.42389
62.36000, 27.98145
62.39000, 23.73895
62.42000, 21.91254
62.45000, 20.61633
62.48000, 15.39417
62.51000, 17.94995
62.54000, 15.94287
62.57000, 28.58441
62.60000, 16.86755
62.63000, 20.29089
62.66000, 23.15442
62.69000, 15.45898
62.72000, 11.58472
62.75000, 5.640625
62.78000, 2.410522
62.81000, 10.77570
62.84000, 12.99255
62.87000, 15.65430
62.90000, 10.28223
62.93000, 14.36523
62.96000, 11.86945
62.99000, 10.41852
63.02000, 18.16968
63.05000, 20.78381
63.08000, 20.08032
63.11000, 19.27930
63.14000, 19.73389
63.17000, 23.72052
63.20000, 19.20477
63.23000, 18.29266
63.26000, 19.17102
63.29000, 14.19366
63.32000, 14.83813
63.35000, 9.357666
63.38000, 14.38019
63.41000, 12.33459
63.44000, 15.11578
63.47000, 17.86877
63.50000, 13.25708
63.53000, 13.59686
63.56000, 18.07617
63.59000, 10.53491
63.62000, 10.03705
63.65000, 11.04596
63.68000, 13.29431
63.71000, 25.91321
63.74000, 26.08472
63.77000, 24.71594
63.80000, 28.46912
63.83000, 26.85828
63.86000, 27.06451
63.89000, 26.38892
63.92000, 29.88483
63.95000, 34.50317
63.98000, 40.23438
64.01000, 43.21521
64.04000, 43.45099
64.07000, 46.21509
64.10000, 39.78864
64.13000, 29.39746
64.16000, 22.53790
64.19000, 21.49896
64.22000, 28.74127
64.25000, 32.12457
64.28000, 23.60724
64.31000, 19.55908
64.34000, 13.96008
64.37000, 13.26184
64.40000, 19.17615
64.43000, 18.87097
64.46000, 23.35986
64.49000, 27.84393
64.52000, 26.28619
64.55000, 17.18274
64.58000, 2.506042
64.61000, 1.223267
64.64000, 5.771423
64.67000, 15.71332
64.70000, 27.05334
64.73000, 25.56964
64.76000, 14.56500
64.79000, 15.74890
64.82000, 12.35144
64.85000, 1.542542
64.88000, 1.045471
64.91000, 4.286438
64.94000, 11.68201
64.97000, 21.65674
65.00000, 10.52032
65.03000, 12.95923
65.06000, 18.64978
65.09000, 0.0000000E+00
##END=



