##NAMES=Ilsemannite
##RRUFFID=R070513
##IDEAL CHEMISTRY=Mo^4+^Mo^6+^_2_O_8_&#183;nH_2_O
##LOCALITY=Osamu Utsumi Mine, Po√ßos de Caldas, Minas Gerais, Brazil
##OWNER=RRUFF
##SOURCE=Michael Scott
##DESCRIPTION=Pale blue vitreous coating
##DIFFRACTION SAMPLE DESCRIPTION=Powder, using Mo radiation
##STATUS=The identification of this mineral is not yet confirmed.
##URL=rruff.info/R070513
5.460000, 0.0000000E+00
5.480000, 5.0476000E-02
5.500000, 5.213715
5.520000, 7.066071
5.540000, 7.717560
5.560000, 6.930756
5.580000, 8.341492
5.600000, 11.83014
5.620000, 18.27347
5.640000, 20.01779
5.660000, 21.61215
5.680000, 20.91232
5.700000, 16.46649
5.720000, 15.29968
5.740000, 17.34756
5.760000, 16.88229
5.780000, 13.76309
5.800000, 8.329712
5.820000, 5.012268
5.840000, 2.511932
5.860000, 0.2497860
5.880000, 2.245758
5.900000, 6.700165
5.920000, 7.439819
5.940000, 7.641846
5.960000, 7.831451
5.980000, 8.892792
6.000000, 14.47894
6.020000, 21.83270
6.040000, 24.07196
6.060000, 24.46124
6.080000, 19.97766
6.100000, 14.61243
6.120000, 10.66846
6.140000, 12.53116
6.160000, 12.66299
6.180000, 16.22540
6.200000, 19.01575
6.220000, 22.05322
6.240000, 20.68384
6.260000, 21.66452
6.280000, 21.03906
6.300000, 24.68668
6.320000, 30.60446
6.340000, 31.98605
6.360000, 33.40067
6.380000, 31.05414
6.400000, 22.80325
6.420000, 19.34186
6.440000, 19.27216
6.460000, 23.26788
6.480000, 22.88449
6.500000, 22.64658
6.520000, 24.76114
6.540000, 25.75983
6.560000, 23.63431
6.580000, 18.83334
6.600000, 17.81357
6.620000, 22.77176
6.640000, 26.66760
6.660000, 27.68582
6.680000, 27.76541
6.700000, 31.14868
6.720000, 29.34943
6.740000, 25.24789
6.760000, 28.35605
6.780000, 29.70828
6.800000, 26.14310
6.820000, 24.15607
6.840000, 23.65875
6.860000, 18.89160
6.880000, 17.45917
6.900000, 21.82040
6.920000, 24.20798
6.940000, 22.53760
6.960000, 23.67880
6.980000, 24.08533
7.000000, 25.31287
7.020000, 26.21817
7.040000, 26.31284
7.060000, 24.25613
7.080000, 18.42773
7.100000, 14.88745
7.120000, 13.95700
7.140000, 10.66022
7.160000, 5.700806
7.180000, 4.245331
7.200000, 5.309479
7.220000, 7.854065
7.240000, 6.044678
7.260000, 5.269501
7.280000, 6.006256
7.300000, 5.536072
7.320000, 0.6881710
7.340000, 0.6923830
7.360000, 0.2704770
7.380000, 2.271332
7.400000, 5.144989
7.420000, 0.7976070
7.440000, 5.827728
7.460000, 9.765869
7.480000, 8.415710
7.500000, 2.513489
7.520000, 0.1777950
7.540000, 0.7115170
7.560000, 2.368408
7.580000, 5.418274
7.600000, 6.034912
7.620000, 4.316284
7.640000, 1.247467
7.660000, 2.356018
7.680000, 3.939850
7.700000, 6.814545
7.720000, 5.406982
7.740000, 1.8982001E-02
7.760000, 7.850464
7.780000, 12.82419
7.800000, 17.20325
7.820000, 15.08173
7.840000, 13.71387
7.860000, 12.71335
7.880000, 5.935608
7.900000, 2.958527
7.920000, 2.178741
7.940000, 1.825531
7.960000, 0.2623600
7.980000, 0.3113710
8.000000, 2.594788
8.020000, 5.964874
8.040000, 4.542786
8.060000, 3.629852
8.080000, 3.988953
8.100000, 3.897675
8.120000, 2.228943
8.140000, 0.7634580
8.160000, 2.182251
8.180000, 3.628052
8.200000, 5.070892
8.220000, 5.919861
8.240000, 3.900818
8.260000, 3.308502
8.280000, 3.965729
8.300000, 5.981049
8.320000, 5.595734
8.340000, 4.164581
8.360000, 1.733337
8.380000, 1.524658
8.400000, 3.889313
8.420000, 4.702148
8.440000, 3.728180
8.460000, 3.176392
8.480000, 5.100006
8.500000, 6.612335
8.520000, 7.691772
8.540000, 8.761719
8.560000, 7.397003
8.580000, 6.832672
8.600000, 2.163696
8.620000, 0.3036500
8.640000, 1.325714
8.660000, 3.274078
8.680000, 7.966644
8.700000, 13.52786
8.720000, 14.83899
8.740000, 8.673126
8.760000, 4.652618
8.780000, 5.414246
8.800000, 5.369324
8.820000, 7.163269
8.840000, 12.11731
8.860000, 12.44351
8.880000, 13.02771
8.900000, 14.45554
8.920000, 16.28796
8.940000, 22.18646
8.960000, 31.74625
8.980000, 34.50156
9.000000, 32.59457
9.020000, 33.35510
9.040000, 35.88977
9.060000, 35.61841
9.080000, 35.83057
9.100000, 39.87601
9.120000, 43.77728
9.140000, 49.23132
9.160000, 52.31668
9.180000, 56.81305
9.200000, 60.39340
9.220000, 58.28879
9.240000, 55.10922
9.260000, 50.97855
9.280000, 50.19656
9.300000, 50.01917
9.320000, 50.92380
9.340000, 48.67151
9.360000, 44.96729
9.380000, 43.28223
9.400000, 42.34729
9.420000, 40.10345
9.440000, 36.30582
9.460000, 35.72931
9.480000, 35.83295
9.500000, 34.84854
9.520000, 33.09933
9.540000, 34.78745
9.560000, 37.38007
9.580000, 37.11884
9.600000, 38.30066
9.620000, 39.49963
9.640000, 43.07877
9.660000, 46.58548
9.680000, 46.02725
9.700000, 45.96408
9.720000, 42.69958
9.740000, 41.90970
9.760000, 40.18713
9.780000, 32.91724
9.800000, 33.06390
9.820000, 36.94852
9.840000, 36.01025
9.860000, 33.57980
9.880000, 29.55615
9.900000, 24.28290
9.920000, 21.12079
9.940000, 19.32953
9.960000, 22.06329
9.980000, 23.83533
10.00000, 28.25330
10.02000, 28.77765
10.04000, 27.15027
10.06000, 25.53650
10.08000, 21.09344
10.10000, 18.03082
10.12000, 21.04346
10.14000, 19.52112
10.16000, 21.05609
10.18000, 22.02234
10.20000, 20.11450
10.22000, 21.21863
10.24000, 19.29291
10.26000, 16.84821
10.28000, 19.51990
10.30000, 18.50732
10.32000, 18.18152
10.34000, 13.71661
10.36000, 7.454041
10.38000, 6.094055
10.40000, 7.035278
10.42000, 6.812439
10.44000, 8.740601
10.46000, 13.36584
10.48000, 16.47015
10.50000, 15.54761
10.52000, 14.89819
10.54000, 12.64514
10.56000, 13.58435
10.58000, 15.66589
10.60000, 15.07489
10.62000, 14.36627
10.64000, 14.53925
10.66000, 15.62628
10.68000, 19.13904
10.70000, 20.95142
10.72000, 22.90344
10.74000, 24.77118
10.76000, 22.42975
10.78000, 20.70905
10.80000, 19.43610
10.82000, 18.77704
10.84000, 19.53894
10.86000, 18.64789
10.88000, 19.41675
10.90000, 18.58362
10.92000, 15.79474
10.94000, 13.06586
10.96000, 9.758240
10.98000, 9.841797
11.00000, 12.94659
11.02000, 17.89185
11.04000, 22.56323
11.06000, 24.35596
11.08000, 24.48401
11.10000, 25.73547
11.12000, 24.42633
11.14000, 19.91083
11.16000, 19.89862
11.18000, 19.93604
11.20000, 18.93903
11.22000, 20.10675
11.24000, 21.31702
11.26000, 19.64911
11.28000, 19.24597
11.30000, 20.32874
11.32000, 25.66821
11.34000, 27.39978
11.36000, 24.34723
11.38000, 25.93372
11.40000, 28.13940
11.42000, 30.45105
11.44000, 31.18481
11.46000, 33.94275
11.48000, 41.43896
11.50000, 46.49127
11.52000, 42.91376
11.54000, 40.16052
11.56000, 39.05756
11.58000, 38.87878
11.60000, 43.32123
11.62000, 46.50793
11.64000, 46.19379
11.66000, 44.54712
11.68000, 45.53693
11.70000, 47.39410
11.72000, 45.42773
11.74000, 42.73560
11.76000, 42.13531
11.78000, 40.72217
11.80000, 43.12054
11.82000, 45.81024
11.84000, 45.72620
11.86000, 44.68744
11.88000, 43.96100
11.90000, 46.01184
11.92000, 49.99811
11.94000, 56.54401
11.96000, 56.09894
11.98000, 57.76923
12.00000, 62.88837
12.02000, 69.59027
12.04000, 74.82397
12.06000, 77.44513
12.08000, 80.24249
12.10000, 80.87152
12.12000, 78.64697
12.14000, 78.38446
12.16000, 77.61237
12.18000, 81.05249
12.20000, 81.53967
12.22000, 77.67767
12.24000, 78.01636
12.26000, 79.72815
12.28000, 84.47040
12.30000, 88.99847
12.32000, 85.49957
12.34000, 78.78192
12.36000, 75.62469
12.38000, 70.57275
12.40000, 67.03613
12.42000, 64.57715
12.44000, 65.43719
12.46000, 67.95465
12.48000, 67.97375
12.50000, 62.96558
12.52000, 59.15442
12.54000, 58.71527
12.56000, 59.13934
12.58000, 59.63202
12.60000, 62.66351
12.62000, 62.22571
12.64000, 61.25122
12.66000, 59.84094
12.68000, 62.36285
12.70000, 65.42584
12.72000, 69.01392
12.74000, 70.80896
12.76000, 70.32959
12.78000, 69.82312
12.80000, 67.14795
12.82000, 66.00525
12.84000, 64.81427
12.86000, 61.95630
12.88000, 59.35291
12.90000, 60.98706
12.92000, 63.89600
12.94000, 65.25873
12.96000, 62.18304
12.98000, 61.23901
13.00000, 63.33466
13.02000, 64.51282
13.04000, 66.78015
13.06000, 67.75818
13.08000, 68.02228
13.10000, 67.84570
13.12000, 63.70654
13.14000, 58.09869
13.16000, 60.63708
13.18000, 63.39563
13.20000, 66.41833
13.22000, 69.68304
13.24000, 70.98199
13.26000, 70.09583
13.28000, 72.23267
13.30000, 74.33160
13.32000, 74.20374
13.34000, 75.89508
13.36000, 73.85345
13.38000, 68.56360
13.40000, 67.35919
13.42000, 66.75928
13.44000, 64.39343
13.46000, 69.82684
13.48000, 75.47449
13.50000, 74.89221
13.52000, 69.55206
13.54000, 67.85406
13.56000, 66.73523
13.58000, 66.08435
13.60000, 65.29651
13.62000, 63.21460
13.64000, 58.29962
13.66000, 57.64355
13.68000, 58.20428
13.70000, 61.12085
13.72000, 65.31311
13.74000, 65.93719
13.76000, 63.81995
13.78000, 62.62244
13.80000, 60.90247
13.82000, 57.18927
13.84000, 55.47479
13.86000, 55.70889
13.88000, 54.19870
13.90000, 50.04095
13.92000, 50.14664
13.94000, 50.97162
13.96000, 50.19702
13.98000, 48.01865
14.00000, 47.98657
14.02000, 49.75470
14.04000, 50.09601
14.06000, 52.06509
14.08000, 52.88861
14.10000, 52.52072
14.12000, 52.28076
14.14000, 54.05469
14.16000, 54.39404
14.18000, 52.80521
14.20000, 55.03220
14.22000, 60.68900
14.24000, 63.66147
14.26000, 62.41257
14.28000, 64.66837
14.30000, 67.33926
14.32000, 67.42877
14.34000, 66.91312
14.36000, 65.44794
14.38000, 61.97815
14.40000, 58.81967
14.42000, 56.46252
14.44000, 58.21008
14.46000, 55.65692
14.48000, 54.22540
14.50000, 53.55695
14.52000, 49.47458
14.54000, 46.70135
14.56000, 43.09741
14.58000, 39.52765
14.60000, 42.76538
14.62000, 47.19629
14.64000, 50.28882
14.66000, 50.39856
14.68000, 47.26318
14.70000, 44.05933
14.72000, 38.89987
14.74000, 37.13376
14.76000, 36.36124
14.78000, 38.09161
14.80000, 37.55545
14.82000, 37.88770
14.84000, 35.92612
14.86000, 35.39084
14.88000, 34.57559
14.90000, 32.28134
14.92000, 28.14099
14.94000, 29.19995
14.96000, 32.54517
14.98000, 35.79401
15.00000, 41.92813
15.02000, 44.97433
15.04000, 41.97079
15.06000, 40.71674
15.08000, 41.30396
15.10000, 41.69269
15.12000, 41.35455
15.14000, 39.01190
15.16000, 36.64417
15.18000, 36.79456
15.20000, 38.24603
15.22000, 39.63388
15.24000, 39.87173
15.26000, 39.24136
15.28000, 40.75446
15.30000, 38.85327
15.32000, 37.06332
15.34000, 36.69760
15.36000, 32.38809
15.38000, 23.19485
15.40000, 19.23511
15.42000, 19.55420
15.44000, 16.64606
15.46000, 18.22867
15.48000, 20.20312
15.50000, 20.89374
15.52000, 17.78110
15.54000, 16.98007
15.56000, 19.48822
15.58000, 25.50385
15.60000, 28.06357
15.62000, 27.54355
15.64000, 26.79770
15.66000, 23.77487
15.68000, 17.91318
15.70000, 15.11966
15.72000, 16.04837
15.74000, 20.20935
15.76000, 23.21384
15.78000, 25.29276
15.80000, 26.95914
15.82000, 30.89383
15.84000, 35.34805
15.86000, 37.67188
15.88000, 38.78528
15.90000, 39.16080
15.92000, 38.51599
15.94000, 38.74783
15.96000, 34.57904
15.98000, 31.49149
16.00000, 31.49814
16.02000, 31.99103
16.04000, 35.37411
16.06000, 38.17538
16.08000, 34.73486
16.10000, 27.56360
16.12000, 25.57846
16.14000, 26.78729
16.16000, 26.34607
16.18000, 25.07166
16.20000, 23.05807
16.22000, 17.68665
16.24000, 13.42026
16.26000, 12.95636
16.28000, 12.42200
16.30000, 10.28070
16.32000, 6.975006
16.34000, 6.727936
16.36000, 6.581543
16.38000, 5.319366
16.40000, 4.069427
16.42000, 1.765167
16.44000, 7.5866997E-02
16.46000, 2.016724
16.48000, 1.783752
16.50000, 0.5359800
16.52000, 4.494202
16.54000, 5.895477
16.56000, 2.428345
16.58000, 1.307251
16.60000, 0.3237610
16.62000, 1.351166
16.64000, 3.500397
16.66000, 1.177460
16.68000, 0.9677120
16.70000, 1.161469
16.72000, 1.310150
16.74000, 4.433411
16.76000, 3.770233
16.78000, 1.803680
16.80000, 0.5844120
16.82000, 3.120117
16.84000, 1.856659
16.86000, 0.5004270
16.88000, 1.819855
16.90000, 0.1604310
16.92000, 3.731659
16.94000, 4.338654
16.96000, 1.871704
16.98000, 1.269775
17.00000, 3.616608
17.02000, 4.359558
17.04000, 3.853027
17.06000, 1.569183
17.08000, 6.845490
17.10000, 8.560852
17.12000, 6.550232
17.14000, 1.814514
17.16000, 1.770660
17.18000, 0.7991330
17.20000, 1.614441
17.22000, 1.791229
17.24000, 2.420654
17.26000, 2.920227
17.28000, 3.742249
17.30000, 2.335175
17.32000, 0.7635190
17.34000, 1.136505
17.36000, 2.316498
17.38000, 3.764893
17.40000, 3.398102
17.42000, 0.5517270
17.44000, 1.664612
17.46000, 0.9060670
17.48000, 2.603119
17.50000, 4.626923
17.52000, 4.606445
17.54000, 5.439941
17.56000, 7.110840
17.58000, 3.752167
17.60000, 0.7512210
17.62000, 1.731567
17.64000, 4.290771
17.66000, 3.789215
17.68000, 4.378021
17.70000, 4.854980
17.72000, 3.740448
17.74000, 8.1634998E-02
17.76000, 0.3154300
17.78000, 0.4841310
17.80000, 1.661285
17.82000, 5.426575
17.84000, 8.273071
17.86000, 7.651794
17.88000, 6.417816
17.90000, 7.260681
17.92000, 7.986115
17.94000, 9.043304
17.96000, 8.573853
17.98000, 9.067993
18.00000, 9.771454
18.02000, 9.752808
18.04000, 9.434937
18.06000, 9.350739
18.08000, 7.965149
18.10000, 8.507294
18.12000, 9.091797
18.14000, 11.22211
18.16000, 16.53519
18.18000, 18.89978
18.20000, 21.63290
18.22000, 24.10583
18.24000, 25.40591
18.26000, 24.21634
18.28000, 22.38651
18.30000, 20.82837
18.32000, 20.07281
18.34000, 23.08578
18.36000, 29.31833
18.38000, 32.08899
18.40000, 30.35699
18.42000, 28.74274
18.44000, 27.42618
18.46000, 27.19290
18.48000, 25.54721
18.50000, 24.66159
18.52000, 26.65375
18.54000, 28.23679
18.56000, 27.14008
18.58000, 21.67996
18.60000, 20.51050
18.62000, 23.52405
18.64000, 20.62402
18.66000, 24.03128
18.68000, 27.85794
18.70000, 31.17410
18.72000, 30.70071
18.74000, 29.88794
18.76000, 27.73209
18.78000, 25.30478
18.80000, 28.26093
18.82000, 32.59872
18.84000, 32.09946
18.86000, 31.86945
18.88000, 34.22647
18.90000, 34.49704
18.92000, 34.54642
18.94000, 35.45312
18.96000, 34.50244
18.98000, 33.89813
19.00000, 37.56842
19.02000, 36.69745
19.04000, 33.69608
19.06000, 32.76630
19.08000, 31.71771
19.10000, 31.04968
19.12000, 33.67896
19.14000, 36.15884
19.16000, 39.01141
19.18000, 39.89029
19.20000, 40.54205
19.22000, 41.21878
19.24000, 41.38055
19.26000, 42.22858
19.28000, 41.82635
19.30000, 41.73178
19.32000, 38.91980
19.34000, 33.51822
19.36000, 31.57739
19.38000, 31.29044
19.40000, 31.87378
19.42000, 33.05142
19.44000, 34.81900
19.46000, 36.49561
19.48000, 38.67072
19.50000, 41.29718
19.52000, 43.24661
19.54000, 43.82996
19.56000, 45.95447
19.58000, 49.28467
19.60000, 52.39059
19.62000, 51.11145
19.64000, 52.12091
19.66000, 52.64880
19.68000, 52.10184
19.70000, 48.67654
19.72000, 47.09042
19.74000, 41.46667
19.76000, 36.06384
19.78000, 32.14981
19.80000, 29.83005
19.82000, 31.44937
19.84000, 31.31638
19.86000, 31.01959
19.88000, 33.29758
19.90000, 32.47614
19.92000, 28.24652
19.94000, 26.52539
19.96000, 27.23044
19.98000, 27.37170
20.00000, 30.16287
20.02000, 30.25107
20.04000, 28.07501
20.06000, 25.12302
20.08000, 22.03113
20.10000, 20.53436
20.12000, 21.02084
20.14000, 20.07516
20.16000, 23.55612
20.18000, 24.20203
20.20000, 25.62411
20.22000, 29.27118
20.24000, 28.30112
20.26000, 25.06177
20.28000, 22.08939
20.30000, 19.83685
20.32000, 17.68002
20.34000, 14.31873
20.36000, 16.10648
20.38000, 19.77371
20.40000, 20.82721
20.42000, 24.92514
20.44000, 26.24350
20.46000, 21.69318
20.48000, 16.06912
20.50000, 16.12024
20.52000, 19.51440
20.54000, 21.07343
20.56000, 19.68332
20.58000, 18.49210
20.60000, 16.91977
20.62000, 15.22815
20.64000, 17.54108
20.66000, 17.67471
20.68000, 20.46136
20.70000, 20.63055
20.72000, 17.95004
20.74000, 15.04028
20.76000, 15.08835
20.78000, 16.12506
20.80000, 16.17908
20.82000, 11.43503
20.84000, 8.750641
20.86000, 8.336700
20.88000, 9.338226
20.90000, 11.75836
20.92000, 13.51028
20.94000, 16.52805
20.96000, 14.81570
20.98000, 13.90732
21.00000, 16.33350
21.02000, 16.46429
21.04000, 16.89929
21.06000, 16.14731
21.08000, 11.23294
21.10000, 7.274506
21.12000, 6.282867
21.14000, 10.10883
21.16000, 13.40009
21.18000, 14.03159
21.20000, 14.74411
21.22000, 14.79092
21.24000, 16.22238
21.26000, 14.86124
21.28000, 15.06351
21.30000, 14.85303
21.32000, 9.337524
21.34000, 9.230011
21.36000, 13.98599
21.38000, 15.66934
21.40000, 18.48306
21.42000, 20.46524
21.44000, 19.68082
21.46000, 17.23880
21.48000, 18.50244
21.50000, 19.59570
21.52000, 15.04541
21.54000, 10.86169
21.56000, 8.049500
21.58000, 7.138885
21.60000, 6.157806
21.62000, 10.94983
21.64000, 10.56192
21.66000, 11.05365
21.68000, 12.10507
21.70000, 15.08231
21.72000, 12.01926
21.74000, 5.544128
21.76000, 4.953247
21.78000, 5.054565
21.80000, 2.903656
21.82000, 2.932617
21.84000, 2.286987
21.86000, 4.101685
21.88000, 4.619476
21.90000, 7.591980
21.92000, 9.207428
21.94000, 8.821991
21.96000, 7.548584
21.98000, 7.955994
22.00000, 8.848541
22.02000, 8.871338
22.04000, 3.532562
22.06000, 2.198334
22.08000, 3.026825
22.10000, 2.572815
22.12000, 3.188934
22.14000, 0.2646180
22.16000, 1.832184
22.18000, 0.4819640
22.20000, 0.4368900
22.22000, 9.6038997E-02
22.24000, 1.135498
22.26000, 3.275085
22.28000, 6.183929
22.30000, 4.907623
22.32000, 5.961212
22.34000, 6.517090
22.36000, 5.897614
22.38000, 5.917053
22.40000, 3.035614
22.42000, 0.4096070
22.44000, 2.035431
22.46000, 1.033783
22.48000, 2.593323
22.50000, 3.812408
22.52000, 3.903198
22.54000, 3.887299
22.56000, 0.7498470
22.58000, 3.647461
22.60000, 2.931824
22.62000, 0.3844910
22.64000, 1.786499
22.66000, 1.222321
22.68000, 1.744415
22.70000, 4.861420
22.72000, 6.717712
22.74000, 4.936707
22.76000, 5.561066
22.78000, 6.685150
22.80000, 6.616425
22.82000, 7.310028
22.84000, 10.32993
22.86000, 9.688232
22.88000, 7.471558
22.90000, 3.722412
22.92000, 2.835358
22.94000, 5.173615
22.96000, 9.005890
22.98000, 7.648041
23.00000, 6.904114
23.02000, 6.281616
23.04000, 7.415649
23.06000, 8.401672
23.08000, 9.369324
23.10000, 11.15997
23.12000, 14.46762
23.14000, 18.26935
23.16000, 17.90863
23.18000, 17.88388
23.20000, 12.98547
23.22000, 8.613953
23.24000, 9.876892
23.26000, 10.61392
23.28000, 10.85458
23.30000, 12.28714
23.32000, 10.00156
23.34000, 5.961487
23.36000, 4.633453
23.38000, 3.723419
23.40000, 5.558929
23.42000, 9.204712
23.44000, 9.518768
23.46000, 8.145111
23.48000, 6.413727
23.50000, 8.787781
23.52000, 8.528961
23.54000, 8.700043
23.56000, 12.39539
23.58000, 13.48453
23.60000, 16.15369
23.62000, 19.32278
23.64000, 15.85324
23.66000, 14.65198
23.68000, 15.78094
23.70000, 16.12320
23.72000, 17.93951
23.74000, 17.27426
23.76000, 15.60049
23.78000, 17.61002
23.80000, 16.63489
23.82000, 15.06812
23.84000, 15.64169
23.86000, 12.43860
23.88000, 10.21198
23.90000, 8.658691
23.92000, 7.109802
23.94000, 9.052368
23.96000, 10.13879
23.98000, 12.61041
24.00000, 12.21375
24.02000, 10.41101
24.04000, 7.487762
24.06000, 5.362000
24.08000, 6.917694
24.10000, 12.15591
24.12000, 12.65665
24.14000, 16.76025
24.16000, 20.92868
24.18000, 23.43591
24.20000, 23.32315
24.22000, 20.99734
24.24000, 19.24768
24.26000, 15.78204
24.28000, 5.094238
24.30000, 0.7439580
24.32000, 4.559052
24.34000, 8.533630
24.36000, 8.885834
24.38000, 6.690582
24.40000, 7.159912
24.42000, 7.752808
24.44000, 8.697845
24.46000, 13.34921
24.48000, 10.66953
24.50000, 7.585785
24.52000, 12.20386
24.54000, 21.49268
24.56000, 25.89670
24.58000, 19.99570
24.60000, 17.62848
24.62000, 17.97830
24.64000, 13.64566
24.66000, 14.10086
24.68000, 18.67041
24.70000, 19.84158
24.72000, 18.30038
24.74000, 15.99774
24.76000, 16.72772
24.78000, 16.31128
24.80000, 14.10153
24.82000, 17.08508
24.84000, 22.00980
24.86000, 22.12442
24.88000, 21.77032
24.90000, 24.19836
24.92000, 29.26294
24.94000, 31.32709
24.96000, 25.61234
24.98000, 30.37604
25.00000, 34.38339
25.02000, 36.58853
25.04000, 39.74353
25.06000, 41.95276
25.08000, 39.79175
25.10000, 41.90460
25.12000, 46.79510
25.14000, 42.43625
25.16000, 37.92209
25.18000, 34.37955
25.20000, 28.77661
25.22000, 25.64130
25.24000, 26.58157
25.26000, 25.20755
25.28000, 18.48514
25.30000, 10.36932
25.32000, 8.778198
25.34000, 10.57568
25.36000, 12.13281
25.38000, 8.238525
25.40000, 2.017914
25.42000, 1.083038
25.44000, 8.2428001E-02
25.46000, 3.087555
25.48000, 4.362305
25.50000, 3.809723
25.52000, 4.785797
25.54000, 2.793549
25.56000, 3.417023
25.58000, 1.674896
25.60000, 1.703613
25.62000, 3.904877
25.64000, 6.951935
25.66000, 9.859894
25.68000, 9.149689
25.70000, 10.21918
25.72000, 12.36838
25.74000, 8.683289
25.76000, 10.51190
25.78000, 16.17621
25.80000, 15.76120
25.82000, 13.80591
25.84000, 13.93433
25.86000, 12.77246
25.88000, 12.13263
25.90000, 11.37579
25.92000, 6.858032
25.94000, 3.984039
25.96000, 2.272736
25.98000, 6.281342
26.00000, 3.290192
26.02000, 2.775787
26.04000, 10.17551
26.06000, 15.95193
26.08000, 15.34711
26.10000, 18.38895
26.12000, 16.31155
26.14000, 7.770966
26.16000, 4.626099
26.18000, 6.059937
26.20000, 7.951477
26.22000, 4.559753
26.24000, 4.899139
26.26000, 6.262054
26.28000, 10.50171
26.30000, 11.79013
26.32000, 14.42627
26.34000, 18.15613
26.36000, 14.94473
26.38000, 7.646149
26.40000, 8.732361
26.42000, 8.342316
26.44000, 10.72308
26.46000, 11.37341
26.48000, 7.602722
26.50000, 2.309448
26.52000, 2.2980001E-02
26.54000, 0.7266540
26.56000, 0.3833620
26.58000, 0.3107910
26.60000, 4.362091
26.62000, 5.147766
26.64000, 3.014038
26.66000, 1.474762
26.68000, 9.910370
26.70000, 16.43372
26.72000, 17.52277
26.74000, 14.89957
26.76000, 11.82309
26.78000, 13.45935
26.80000, 16.36533
26.82000, 15.94403
26.84000, 14.39355
26.86000, 16.45187
26.88000, 13.73505
26.90000, 12.44699
26.92000, 10.11273
26.94000, 6.355621
26.96000, 5.689026
26.98000, 3.902374
27.00000, 5.994659
27.02000, 10.46393
27.04000, 14.78107
27.06000, 18.89798
27.08000, 20.94653
27.10000, 20.53586
27.12000, 16.94385
27.14000, 15.95160
27.16000, 16.33505
27.18000, 15.90002
27.20000, 16.55753
27.22000, 12.09091
27.24000, 8.200684
27.26000, 11.55362
27.28000, 19.43121
27.30000, 22.54657
27.32000, 26.21457
27.34000, 30.56326
27.36000, 28.22772
27.38000, 24.66492
27.40000, 26.69968
27.42000, 26.52728
27.44000, 24.56012
27.46000, 25.31006
27.48000, 26.82367
27.50000, 25.81195
27.52000, 26.82690
27.54000, 27.25156
27.56000, 25.95483
27.58000, 24.43381
27.60000, 22.30844
27.62000, 21.09872
27.64000, 21.26270
27.66000, 22.21732
27.68000, 15.81358
27.70000, 13.35950
27.72000, 11.90308
27.74000, 13.32230
27.76000, 13.58316
27.78000, 12.48065
27.80000, 15.38979
27.82000, 14.31033
27.84000, 13.00943
27.86000, 13.01949
27.88000, 12.65916
27.90000, 13.30046
27.92000, 8.070419
27.94000, 5.348969
27.96000, 8.573151
27.98000, 7.829605
28.00000, 8.931686
28.02000, 8.378372
28.04000, 7.375702
28.06000, 8.027618
28.08000, 11.30515
28.10000, 14.62340
28.12000, 16.42325
28.14000, 14.90167
28.16000, 10.56772
28.18000, 9.875336
28.20000, 15.45056
28.22000, 17.21736
28.24000, 14.28088
28.26000, 11.56111
28.28000, 11.60150
28.30000, 15.57448
28.32000, 18.96631
28.34000, 19.96997
28.36000, 22.39114
28.38000, 24.02512
28.40000, 24.74687
28.42000, 23.88414
28.44000, 17.42194
28.46000, 8.739227
28.48000, 3.600052
28.50000, 1.149384
28.52000, 1.929214
28.54000, 4.851578
28.56000, 6.592422
28.58000, 8.462784
28.60000, 7.590637
28.62000, 6.355576
28.64000, 8.799332
28.66000, 8.753632
28.68000, 5.954315
28.70000, 7.568481
28.72000, 12.60710
28.74000, 17.25613
28.76000, 20.66559
28.78000, 23.87247
28.80000, 26.22684
28.82000, 26.87825
28.84000, 24.12704
28.86000, 17.05768
28.88000, 18.04114
28.90000, 16.53763
28.92000, 16.33987
28.94000, 16.00044
28.96000, 11.44620
28.98000, 8.647491
29.00000, 5.663986
29.02000, 4.695847
29.04000, 2.951050
29.06000, 4.426773
29.08000, 3.813889
29.10000, 1.609299
29.12000, 4.530075
29.14000, 8.530167
29.16000, 7.504593
29.18000, 7.893341
29.20000, 6.936417
29.22000, 6.759796
29.24000, 7.426468
29.26000, 12.96545
29.28000, 12.55276
29.30000, 12.23236
29.32000, 12.96535
29.34000, 12.59779
29.36000, 12.60951
29.38000, 8.304504
29.40000, 7.204758
29.42000, 11.01727
29.44000, 10.82504
29.46000, 7.894058
29.48000, 5.059311
29.50000, 3.542770
29.52000, 1.862503
29.54000, 2.615448
29.56000, 3.808426
29.58000, 2.943237
29.60000, 11.05032
29.62000, 20.16310
29.64000, 18.72809
29.66000, 14.62923
29.68000, 12.19659
29.70000, 7.344086
29.72000, 6.658768
29.74000, 7.537598
29.76000, 5.144638
29.78000, 3.832779
29.80000, 2.405106
29.82000, 4.530533
29.84000, 6.590118
29.86000, 8.747787
29.88000, 13.93958
29.90000, 16.47743
29.92000, 13.06537
29.94000, 12.11842
29.96000, 8.689529
29.98000, 6.897720
30.00000, 10.68495
30.02000, 7.538376
30.04000, 2.490829
30.06000, 2.587357
30.08000, 3.610916
30.10000, 5.297516
30.12000, 7.461136
30.14000, 10.68381
30.16000, 7.325500
30.18000, 6.352203
30.20000, 10.40193
30.22000, 15.63176
30.24000, 19.48061
30.26000, 21.39561
30.28000, 23.56163
30.30000, 23.69661
30.32000, 18.28760
30.34000, 15.23604
30.36000, 12.71445
30.38000, 13.32196
30.40000, 21.96748
30.42000, 21.67317
30.44000, 18.34576
30.46000, 17.66731
30.48000, 16.88762
30.50000, 16.00404
30.52000, 9.924408
30.54000, 2.996689
30.56000, 6.701889
30.58000, 8.832993
30.60000, 8.429001
30.62000, 0.4418950
30.64000, 0.3024440
30.66000, 8.8592999E-02
30.68000, 3.655762
30.70000, 3.353500
30.72000, 1.203476
30.74000, 2.993454
30.76000, 11.12653
30.78000, 10.35869
30.80000, 5.035324
30.82000, 5.850052
30.84000, 2.960861
30.86000, 3.262726
30.88000, 3.648666
30.90000, 3.316422
30.92000, 10.74817
30.94000, 11.97998
30.96000, 4.732819
30.98000, 1.905701
31.00000, 0.4195710
31.02000, 2.144409
31.04000, 0.9927830
31.06000, 8.794830
31.08000, 11.80885
31.10000, 6.673798
31.12000, 3.567673
31.14000, 6.886459
31.16000, 5.107224
31.18000, 3.439850
31.20000, 0.9594270
31.22000, 6.086166
31.24000, 7.383636
31.26000, 1.289551
31.28000, 0.7373960
31.30000, 6.875793
31.32000, 13.09477
31.34000, 16.39555
31.36000, 11.35004
31.38000, 7.925629
31.40000, 10.04517
31.42000, 14.52426
31.44000, 12.15189
31.46000, 10.42731
31.48000, 10.92456
31.50000, 17.82063
31.52000, 13.75848
31.54000, 9.934143
31.56000, 14.39058
31.58000, 14.78581
31.60000, 15.30284
31.62000, 18.45464
31.64000, 20.43420
31.66000, 23.09555
31.68000, 22.37764
31.70000, 25.11270
31.72000, 26.62662
31.74000, 27.11899
31.76000, 24.98798
31.78000, 22.88269
31.80000, 16.29811
31.82000, 12.90108
31.84000, 11.21373
31.86000, 9.333099
31.88000, 7.320175
31.90000, 5.061920
31.92000, 3.465347
31.94000, 1.562500
31.96000, 1.291458
31.98000, 2.449493
32.00000, 7.998123
32.02000, 17.77144
32.04000, 23.17546
32.06000, 24.07820
32.08000, 23.99765
32.10000, 20.26489
32.12000, 19.22693
32.14000, 18.17676
32.16000, 17.57335
32.18000, 20.38771
32.20000, 21.89970
32.22000, 15.49918
32.24000, 16.12946
32.26000, 13.49458
32.28000, 9.265717
32.30000, 9.164368
32.32000, 9.202667
32.34000, 8.974594
32.36000, 8.164124
32.38000, 8.803192
32.40000, 11.38931
32.42000, 9.455612
32.44000, 16.80258
32.46000, 17.68808
32.48000, 12.36414
32.50000, 10.33372
32.52000, 15.19289
32.54000, 10.66855
32.56000, 11.08875
32.58000, 14.41942
32.60000, 10.55859
32.62000, 9.781204
32.64000, 9.823120
32.66000, 12.96758
32.68000, 12.62338
32.70000, 7.520676
32.72000, 0.3644410
32.74000, 3.286530
32.76000, 12.40640
32.78000, 18.35374
32.80000, 15.55551
32.82000, 10.63321
32.84000, 6.736557
32.86000, 2.574554
32.88000, 6.242142
32.90000, 10.81592
32.92000, 12.05231
32.94000, 6.195328
32.96000, 9.414963
32.98000, 17.03709
33.00000, 25.56747
33.02000, 19.55186
33.04000, 10.94734
33.06000, 8.010254
33.08000, 5.950745
33.10000, 5.043823
33.12000, 4.385345
33.14000, 8.296951
33.16000, 8.772995
33.18000, 6.266754
33.20000, 8.782227
33.22000, 11.71040
33.24000, 9.844299
33.26000, 14.08186
33.28000, 9.123535
33.30000, 6.297562
33.32000, 10.56287
33.34000, 7.784927
33.36000, 7.245743
33.38000, 9.506165
33.40000, 8.536804
33.42000, 12.50240
33.44000, 15.63573
33.46000, 16.18134
33.48000, 10.79686
33.50000, 8.731812
33.52000, 8.270233
33.54000, 10.39607
33.56000, 12.84638
33.58000, 15.86609
33.60000, 8.176208
33.62000, 1.963623
33.64000, 3.230865
33.66000, 2.126495
33.68000, 1.7548000E-02
33.70000, 3.504974
33.72000, 2.740219
33.74000, 2.898193
33.76000, 2.834259
33.78000, 0.2241520
33.80000, 1.971298
33.82000, 5.113708
33.84000, 16.21129
33.86000, 23.70811
33.88000, 20.22212
33.90000, 17.49438
33.92000, 15.13899
33.94000, 15.20790
33.96000, 12.60513
33.98000, 11.46635
34.00000, 6.887924
34.02000, 7.745804
34.04000, 10.50298
34.06000, 7.783478
34.08000, 1.245300
34.10000, 0.4618840
34.12000, 6.892792
34.14000, 12.02164
34.16000, 8.063354
34.18000, 6.564545
34.20000, 8.324738
34.22000, 8.614670
34.24000, 2.957748
34.26000, 7.557053
34.28000, 12.74969
34.30000, 12.54292
34.32000, 15.30428
34.34000, 18.61111
34.36000, 14.57118
34.38000, 12.03694
34.40000, 15.29732
34.42000, 16.10364
34.44000, 18.81473
34.46000, 15.17827
34.48000, 9.543610
34.50000, 8.269302
34.52000, 10.74503
34.54000, 12.71175
34.56000, 10.49945
34.58000, 6.479233
34.60000, 4.438629
34.62000, 3.553040
34.64000, 7.357773
34.66000, 11.38612
34.68000, 9.011932
34.70000, 1.675156
34.72000, 1.611328
34.74000, 2.271378
34.76000, 1.127228
34.78000, 8.0231003E-02
34.80000, 4.693893
34.82000, 6.136932
34.84000, 7.585876
34.86000, 15.63011
34.88000, 10.92013
34.90000, 5.534653
34.92000, 11.11644
34.94000, 7.850800
34.96000, 5.537247
34.98000, 7.357544
35.00000, 3.587189
35.02000, 0.4995570
35.04000, 1.505234
35.06000, 5.651489
35.08000, 6.070786
35.10000, 2.512527
35.12000, 0.5673370
35.14000, 0.4772030
35.16000, 0.1023860
35.18000, 0.6871340
35.20000, 2.848801
35.22000, 6.558990
35.24000, 7.415390
35.26000, 9.720490
35.28000, 5.698761
35.30000, 6.056137
35.32000, 5.948242
35.34000, 4.905350
35.36000, 4.001404
35.38000, 2.601990
35.40000, 4.258179
35.42000, 7.736237
35.44000, 6.040558
35.46000, 2.105911
35.48000, 3.062775
35.50000, 2.441498
35.52000, 0.0000000E+00
##END=



