##NAMES=Kinoite
##RRUFFID=R040155
##IDEAL CHEMISTRY=Ca_2_Cu^2+^_2_Si_3_O_10_&#183;2H_2_O
##LOCALITY=Christmas mine, Christmas, Gila County, Arizona, USA
##OWNER=RRUFF
##SOURCE=University of Arizona Mineral Museum
##DESCRIPTION=Pale blue crust
##DIFFRACTION SAMPLE DESCRIPTION=Powder, using Mo radiation
##STATUS=The identification of this mineral has been confirmed by X-ray diffraction and chemical analysis
##URL=rruff.info/R040155
##MEASURED CHEMISTRY=Ca_2.00_Cu_2.00_Si_3.00_O_10_Â·2H_2_O
##CELL PARAMETERS=a: 7.06(2) b: 12.907(7) c: 5.67(2) alpha: 90 beta: 96.16(6) gamma: 90 volume: 513.7(7) crystal system: monoclinic
6.510000, 0.0000000E+00
6.540000, 20.82047
6.570000, 23.98242
6.600000, 19.20300
6.630000, 36.82785
6.660000, 25.86081
6.690000, 7.911621
6.720000, 2.503815
6.750000, 0.1556700
6.780000, 9.093994
6.810000, 10.66119
6.840000, 6.179474
6.870000, 5.668671
6.900000, 0.8940430
6.930000, 2.093781
6.960000, 0.6180110
6.990000, 5.056213
7.020000, 7.172729
7.050000, 13.77985
7.080000, 21.42426
7.110000, 27.01144
7.140000, 27.57141
7.170000, 32.11560
7.200000, 33.93176
7.230000, 35.42050
7.260000, 39.02176
7.290000, 37.20468
7.320000, 42.76962
7.350000, 41.76584
7.380000, 39.89990
7.410000, 38.39978
7.440000, 33.09982
7.470000, 32.95157
7.500000, 23.16687
7.530000, 29.03683
7.560000, 29.48447
7.590000, 24.71060
7.620000, 17.29221
7.650000, 12.21835
7.680000, 11.12024
7.710000, 14.26328
7.740000, 10.98773
7.770000, 16.53217
7.800000, 24.84402
7.830000, 24.22787
7.860000, 27.00040
7.890000, 34.24643
7.920000, 31.30255
7.950000, 26.36838
7.980000, 28.75366
8.010000, 35.66199
8.040000, 39.50797
8.070000, 34.45636
8.100000, 31.11496
8.130000, 23.83231
8.160000, 19.61731
8.190000, 19.43878
8.220000, 21.42188
8.250000, 31.48489
8.280000, 51.60208
8.310000, 64.62195
8.340000, 86.14621
8.370000, 126.2275
8.400000, 166.1297
8.430000, 210.0902
8.460000, 255.9496
8.490000, 290.8233
8.520000, 317.4995
8.550000, 332.9354
8.580000, 338.4633
8.610000, 327.3158
8.640000, 319.8607
8.670000, 325.8629
8.700000, 327.9269
8.730000, 337.0995
8.760000, 329.4947
8.790000, 310.1043
8.820000, 289.4606
8.850000, 253.4958
8.880000, 210.4937
8.910000, 171.2545
8.940000, 142.4502
8.970000, 127.7578
9.000000, 113.0534
9.030000, 105.6318
9.060000, 101.0522
9.090000, 101.1586
9.120000, 107.7587
9.150000, 112.1167
9.180000, 114.6099
9.210000, 118.0048
9.240000, 121.6983
9.270000, 117.6452
9.300000, 127.0856
9.330000, 129.7175
9.360000, 128.6417
9.390000, 124.3643
9.420000, 116.5531
9.450000, 108.3722
9.480000, 98.26556
9.510000, 90.59879
9.540000, 82.14560
9.570000, 72.69424
9.600000, 65.85284
9.630000, 54.83035
9.660000, 45.72681
9.690000, 38.29306
9.720000, 32.65302
9.750000, 27.82770
9.780000, 20.21796
9.810000, 12.06180
9.840000, 13.46036
9.870000, 13.08145
9.900000, 11.12460
9.930000, 16.04990
9.960000, 29.11877
9.990000, 38.50897
10.02000, 48.21649
10.05000, 60.59412
10.08000, 66.47885
10.11000, 72.55484
10.14000, 90.10638
10.17000, 106.2497
10.20000, 117.5536
10.23000, 126.3297
10.26000, 125.9408
10.29000, 124.0184
10.32000, 138.5701
10.35000, 144.4018
10.38000, 141.8265
10.41000, 138.0336
10.44000, 133.1656
10.47000, 120.9373
10.50000, 110.4429
10.53000, 97.51459
10.56000, 80.82843
10.59000, 64.05853
10.62000, 55.92215
10.65000, 53.19882
10.68000, 53.62018
10.71000, 51.96103
10.74000, 52.51703
10.77000, 47.08408
10.80000, 38.20978
10.83000, 32.78802
10.86000, 32.96863
10.89000, 31.61929
10.92000, 36.42688
10.95000, 42.43625
10.98000, 47.77615
11.01000, 45.86847
11.04000, 45.50003
11.07000, 49.50970
11.10000, 47.55432
11.13000, 45.46381
11.16000, 45.51596
11.19000, 45.07278
11.22000, 42.96802
11.25000, 36.18173
11.28000, 31.05569
11.31000, 31.21991
11.34000, 30.60120
11.37000, 36.55447
11.40000, 37.71063
11.43000, 44.69870
11.46000, 50.22116
11.49000, 62.83594
11.52000, 62.56601
11.55000, 68.91254
11.58000, 73.08350
11.61000, 70.81375
11.64000, 70.76031
11.67000, 69.96301
11.70000, 67.01981
11.73000, 70.99469
11.76000, 76.98050
11.79000, 82.79718
11.82000, 104.6322
11.85000, 117.7197
11.88000, 123.7027
11.91000, 126.8951
11.94000, 129.5798
11.97000, 135.1441
12.00000, 133.9278
12.03000, 128.5760
12.06000, 131.4857
12.09000, 135.3498
12.12000, 135.7534
12.15000, 127.8863
12.18000, 115.7466
12.21000, 109.5633
12.24000, 105.9993
12.27000, 104.2396
12.30000, 98.97314
12.33000, 85.33087
12.36000, 68.84079
12.39000, 54.54675
12.42000, 42.51489
12.45000, 28.63403
12.48000, 14.37717
12.51000, 6.815277
12.54000, 6.021271
12.57000, 12.90317
12.60000, 24.53787
12.63000, 34.01541
12.66000, 41.34769
12.69000, 52.70462
12.72000, 68.28125
12.75000, 88.14752
12.78000, 116.1453
12.81000, 144.0736
12.84000, 164.8894
12.87000, 176.3076
12.90000, 175.9661
12.93000, 182.1969
12.96000, 199.9551
12.99000, 217.6995
13.02000, 230.8521
13.05000, 255.9948
13.08000, 283.7326
13.11000, 313.1115
13.14000, 335.8706
13.17000, 356.9904
13.20000, 379.2947
13.23000, 393.8676
13.26000, 410.4897
13.29000, 432.9127
13.32000, 443.9630
13.35000, 455.3446
13.38000, 472.0858
13.41000, 489.5267
13.44000, 508.2521
13.47000, 513.4339
13.50000, 496.5443
13.53000, 457.4395
13.56000, 408.7653
13.59000, 354.7256
13.62000, 316.0043
13.65000, 273.8188
13.68000, 248.1887
13.71000, 230.8572
13.74000, 217.2753
13.77000, 207.6246
13.80000, 202.3929
13.83000, 189.7746
13.86000, 179.8437
13.89000, 162.8698
13.92000, 146.4454
13.95000, 135.0008
13.98000, 125.0457
14.01000, 109.4690
14.04000, 103.3546
14.07000, 98.11795
14.10000, 83.32822
14.13000, 73.27988
14.16000, 64.20792
14.19000, 57.27881
14.22000, 46.98859
14.25000, 37.33121
14.28000, 35.82086
14.31000, 42.21051
14.34000, 53.72263
14.37000, 67.30896
14.40000, 80.64740
14.43000, 90.70483
14.46000, 99.85809
14.49000, 109.3163
14.52000, 112.8573
14.55000, 117.3540
14.58000, 125.1845
14.61000, 128.3237
14.64000, 133.3025
14.67000, 143.6429
14.70000, 152.9707
14.73000, 152.3111
14.76000, 144.5929
14.79000, 128.3151
14.82000, 111.9217
14.85000, 105.1855
14.88000, 103.8936
14.91000, 101.7299
14.94000, 98.76041
14.97000, 89.88400
15.00000, 77.83572
15.03000, 66.40454
15.06000, 61.51953
15.09000, 59.40579
15.12000, 51.92606
15.15000, 41.86642
15.18000, 36.58160
15.21000, 31.44861
15.24000, 27.15338
15.27000, 22.12485
15.30000, 17.24100
15.33000, 10.47275
15.36000, 2.497101
15.39000, 2.115967
15.42000, 3.282166
15.45000, 4.237793
15.48000, 4.186218
15.51000, 2.599457
15.54000, 4.125824
15.57000, 10.77243
15.60000, 21.42633
15.63000, 32.25351
15.66000, 44.25095
15.69000, 53.20694
15.72000, 58.07968
15.75000, 64.46024
15.78000, 68.53439
15.81000, 67.60486
15.84000, 64.04752
15.87000, 57.52237
15.90000, 55.33023
15.93000, 57.74707
15.96000, 60.08792
15.99000, 64.58365
16.02000, 66.07520
16.05000, 65.55255
16.08000, 70.34961
16.11000, 79.03845
16.14000, 92.68704
16.17000, 105.4313
16.20000, 113.6020
16.23000, 117.6582
16.26000, 117.3169
16.29000, 120.8611
16.32000, 121.7096
16.35000, 117.5574
16.38000, 119.7646
16.41000, 117.4971
16.44000, 108.5178
16.47000, 98.80670
16.50000, 89.69983
16.53000, 80.87607
16.56000, 70.76843
16.59000, 58.54184
16.62000, 43.90433
16.65000, 29.81982
16.68000, 15.30527
16.71000, 3.082703
16.74000, 6.420410
16.77000, 12.90607
16.80000, 16.32529
16.83000, 20.38412
16.86000, 22.96448
16.89000, 22.93362
16.92000, 23.79865
16.95000, 21.89389
16.98000, 20.90179
17.01000, 18.10248
17.04000, 5.908783
17.07000, 8.534241
17.10000, 26.78116
17.13000, 43.71304
17.16000, 61.93625
17.19000, 80.23553
17.22000, 101.5774
17.25000, 119.1479
17.28000, 137.4002
17.31000, 160.3968
17.34000, 182.4795
17.37000, 201.6342
17.40000, 220.5168
17.43000, 233.4196
17.46000, 243.4259
17.49000, 256.4712
17.52000, 265.1252
17.55000, 267.8281
17.58000, 266.8641
17.61000, 266.1883
17.64000, 274.8632
17.67000, 274.5620
17.70000, 272.8033
17.73000, 273.1067
17.76000, 267.9158
17.79000, 256.2255
17.82000, 244.4581
17.85000, 226.4369
17.88000, 202.3697
17.91000, 177.1059
17.94000, 152.4506
17.97000, 128.3308
18.00000, 123.6754
18.03000, 115.5667
18.06000, 104.1912
18.09000, 79.76549
18.12000, 72.18561
18.15000, 57.85281
18.18000, 55.06877
18.21000, 50.18376
18.24000, 49.88853
18.27000, 48.27110
18.30000, 44.85240
18.33000, 38.30540
18.36000, 32.98317
18.39000, 32.47363
18.42000, 33.69269
18.45000, 36.17342
18.48000, 39.25778
18.51000, 43.21454
18.54000, 48.10042
18.57000, 53.90829
18.60000, 60.28851
18.63000, 68.20448
18.66000, 76.45596
18.69000, 85.54398
18.72000, 94.28168
18.75000, 104.8646
18.78000, 114.7229
18.81000, 123.5966
18.84000, 128.9107
18.87000, 136.5981
18.90000, 145.2778
18.93000, 153.6758
18.96000, 162.4532
18.99000, 175.9223
19.02000, 193.8688
19.05000, 210.9587
19.08000, 231.8120
19.11000, 258.8027
19.14000, 286.7825
19.17000, 311.0285
19.20000, 329.1107
19.23000, 342.1346
19.26000, 351.8251
19.29000, 355.4620
19.32000, 348.6372
19.35000, 339.4089
19.38000, 328.3946
19.41000, 312.5983
19.44000, 297.0233
19.47000, 282.5180
19.50000, 264.4294
19.53000, 246.3495
19.56000, 230.5880
19.59000, 215.3875
19.62000, 200.2262
19.65000, 192.3652
19.68000, 190.8339
19.71000, 187.4925
19.74000, 180.4275
19.77000, 172.3049
19.80000, 163.9321
19.83000, 152.9552
19.86000, 142.0332
19.89000, 127.4919
19.92000, 111.2475
19.95000, 99.08994
19.98000, 85.13412
20.01000, 71.06711
20.04000, 60.70187
20.07000, 52.90742
20.10000, 46.14273
20.13000, 37.72881
20.16000, 31.68861
20.19000, 33.71118
20.22000, 35.08246
20.25000, 32.56747
20.28000, 28.50217
20.31000, 24.69048
20.34000, 24.79665
20.37000, 25.19899
20.40000, 25.67014
20.43000, 25.83174
20.46000, 24.26909
20.49000, 23.28557
20.52000, 20.66946
20.55000, 18.99509
20.58000, 16.99564
20.61000, 15.70197
20.64000, 13.71907
20.67000, 13.26297
20.70000, 14.44807
20.73000, 16.02640
20.76000, 15.18602
20.79000, 9.444916
20.82000, 3.281555
20.85000, 0.7223820
20.88000, 1.651169
20.91000, 5.973450
20.94000, 10.10571
20.97000, 10.83081
21.00000, 10.78084
21.03000, 7.654785
21.06000, 2.534103
21.09000, 4.086716
21.12000, 5.860077
21.15000, 9.491882
21.18000, 10.10303
21.21000, 11.34886
21.24000, 8.539978
21.27000, 6.381836
21.30000, 7.410782
21.33000, 6.219849
21.36000, 6.227356
21.39000, 6.721649
21.42000, 3.687622
21.45000, 4.370316
21.48000, 9.919922
21.51000, 11.15063
21.54000, 15.57594
21.57000, 22.14499
21.60000, 27.33556
21.63000, 30.16153
21.66000, 37.88898
21.69000, 49.66988
21.72000, 60.18622
21.75000, 75.59105
21.78000, 85.17337
21.81000, 92.18417
21.84000, 97.49345
21.87000, 99.97525
21.90000, 95.86259
21.93000, 93.13542
21.96000, 86.59381
21.99000, 71.67377
22.02000, 58.00725
22.05000, 46.42328
22.08000, 36.26871
22.11000, 25.95012
22.14000, 20.72090
22.17000, 13.79430
22.20000, 9.356201
22.23000, 8.216339
22.26000, 9.223587
22.29000, 10.37259
22.32000, 13.78931
22.35000, 18.00847
22.38000, 23.35861
22.41000, 29.42448
22.44000, 35.60303
22.47000, 40.38033
22.50000, 41.83432
22.53000, 42.05009
22.56000, 48.08961
22.59000, 55.79224
22.62000, 53.61308
22.65000, 46.06335
22.68000, 38.52602
22.71000, 32.68195
22.74000, 29.18469
22.77000, 20.18430
22.80000, 10.24078
22.83000, 4.664948
22.86000, 2.322250
22.89000, 1.436249
22.92000, 2.853714
22.95000, 4.832092
22.98000, 5.738739
23.01000, 6.814896
23.04000, 8.379669
23.07000, 8.301224
23.10000, 6.577606
23.13000, 9.678665
23.16000, 8.639359
23.19000, 13.42953
23.22000, 9.178497
23.25000, 6.936417
23.28000, 6.928207
23.31000, 11.81587
23.34000, 15.84367
23.37000, 20.52367
23.40000, 20.59885
23.43000, 17.68427
23.46000, 16.18593
23.49000, 18.23683
23.52000, 22.02203
23.55000, 24.09549
23.58000, 22.82428
23.61000, 21.82040
23.64000, 25.31987
23.67000, 25.15770
23.70000, 31.15190
23.73000, 39.24649
23.76000, 44.96449
23.79000, 51.21294
23.82000, 60.40979
23.85000, 70.87419
23.88000, 80.75601
23.91000, 87.12671
23.94000, 89.31044
23.97000, 90.37158
24.00000, 87.69830
24.03000, 84.64929
24.06000, 83.93219
24.09000, 87.15500
24.12000, 92.51273
24.15000, 94.91034
24.18000, 85.80968
24.21000, 92.68596
24.24000, 96.10553
24.27000, 96.25717
24.30000, 83.36560
24.33000, 87.32867
24.36000, 84.53601
24.39000, 87.69748
24.42000, 85.23523
24.45000, 80.47217
24.48000, 73.37994
24.51000, 65.92786
24.54000, 57.02385
24.57000, 40.85617
24.60000, 30.57524
24.63000, 26.10304
24.66000, 24.26889
24.69000, 19.92307
24.72000, 17.76250
24.75000, 19.33780
24.78000, 23.81987
24.81000, 32.30920
24.84000, 41.84566
24.87000, 54.73926
24.90000, 70.18045
24.93000, 88.84094
24.96000, 108.8333
24.99000, 129.3667
25.02000, 145.1855
25.05000, 162.0921
25.08000, 181.8694
25.11000, 195.7015
25.14000, 206.1392
25.17000, 216.2124
25.20000, 216.0242
25.23000, 204.3269
25.26000, 195.4794
25.29000, 189.3747
25.32000, 175.1349
25.35000, 157.3599
25.38000, 139.9898
25.41000, 124.5127
25.44000, 108.9944
25.47000, 94.27602
25.50000, 81.14862
25.53000, 68.42511
25.56000, 56.74266
25.59000, 50.15514
25.62000, 41.80362
25.65000, 34.61412
25.68000, 31.05263
25.71000, 30.58818
25.74000, 30.23175
25.77000, 32.87384
25.80000, 32.45071
25.83000, 34.86545
25.86000, 42.14305
25.89000, 56.53157
25.92000, 72.70679
25.95000, 84.19717
25.98000, 94.85568
26.01000, 104.2425
26.04000, 110.0454
26.07000, 111.2055
26.10000, 110.3869
26.13000, 110.0455
26.16000, 105.9213
26.19000, 97.29745
26.22000, 84.81879
26.25000, 68.61647
26.28000, 55.41843
26.31000, 45.25267
26.34000, 37.06923
26.37000, 26.12415
26.40000, 17.73886
26.43000, 16.05846
26.46000, 13.35617
26.49000, 13.09084
26.52000, 13.42355
26.55000, 13.37347
26.58000, 16.28638
26.61000, 16.85463
26.64000, 19.27257
26.67000, 19.33752
26.70000, 20.67094
26.73000, 19.05363
26.76000, 19.43515
26.79000, 19.22377
26.82000, 18.51268
26.85000, 17.84537
26.88000, 22.15363
26.91000, 30.04788
26.94000, 34.09328
26.97000, 35.38329
27.00000, 39.33791
27.03000, 42.88217
27.06000, 46.87512
27.09000, 52.09970
27.12000, 54.75996
27.15000, 57.38290
27.18000, 62.84955
27.21000, 67.62488
27.24000, 74.63092
27.27000, 82.35666
27.30000, 86.14018
27.33000, 87.90543
27.36000, 86.62640
27.39000, 79.71709
27.42000, 72.97260
27.45000, 67.44687
27.48000, 59.50893
27.51000, 49.38089
27.54000, 40.51784
27.57000, 33.25786
27.60000, 27.15958
27.63000, 23.39125
27.66000, 18.60857
27.69000, 16.52261
27.72000, 14.43234
27.75000, 9.760803
27.78000, 9.472946
27.81000, 7.952652
27.84000, 2.387863
27.87000, 4.602951
27.90000, 6.865326
27.93000, 6.869843
27.96000, 12.84438
27.99000, 21.55254
28.02000, 29.30023
28.05000, 38.71426
28.08000, 40.68231
28.11000, 37.85068
28.14000, 35.81885
28.17000, 33.45683
28.20000, 25.32664
28.23000, 21.05655
28.26000, 17.63531
28.29000, 13.98363
28.32000, 10.37627
28.35000, 7.913284
28.38000, 3.367752
28.41000, 1.078323
28.44000, 4.980835
28.47000, 7.695343
28.50000, 7.764587
28.53000, 5.906891
28.56000, 0.9025880
28.59000, 1.907791
28.62000, 0.8015900
28.65000, 2.755112
28.68000, 4.443451
28.71000, 4.280914
28.74000, 0.4016570
28.77000, 5.217178
28.80000, 11.59668
28.83000, 19.49884
28.86000, 27.97363
28.89000, 34.94910
28.92000, 38.91722
28.95000, 43.22501
28.98000, 49.88243
29.01000, 51.40553
29.04000, 52.43828
29.07000, 60.49071
29.10000, 68.69479
29.13000, 71.82651
29.16000, 72.67990
29.19000, 71.68997
29.22000, 73.61969
29.25000, 75.26413
29.28000, 75.05423
29.31000, 80.96497
29.34000, 83.58745
29.37000, 80.11267
29.40000, 78.15201
29.43000, 76.58243
29.46000, 75.77676
29.49000, 73.42291
29.52000, 72.24277
29.55000, 71.65628
29.58000, 65.16345
29.61000, 56.79626
29.64000, 53.98274
29.67000, 50.46483
29.70000, 46.29156
29.73000, 43.88106
29.76000, 45.14899
29.79000, 38.60666
29.82000, 36.57697
29.85000, 34.47293
29.88000, 27.91249
29.91000, 22.91670
29.94000, 18.25050
29.97000, 14.19798
30.00000, 16.33415
30.03000, 16.20232
30.06000, 14.09248
30.09000, 10.13445
30.12000, 8.560669
30.15000, 8.844803
30.18000, 10.96532
30.21000, 15.11073
30.24000, 18.55153
30.27000, 19.78572
30.30000, 18.66835
30.33000, 15.85983
30.36000, 18.77727
30.39000, 17.80838
30.42000, 21.26067
30.45000, 20.25572
30.48000, 24.15442
30.51000, 27.02039
30.54000, 29.91458
30.57000, 30.22935
30.60000, 30.50665
30.63000, 29.10445
30.66000, 24.06970
30.69000, 19.73936
30.72000, 17.09647
30.75000, 15.25299
30.78000, 14.34796
30.81000, 14.45622
30.84000, 16.04909
30.87000, 16.91127
30.90000, 20.72086
30.93000, 23.29483
30.96000, 22.41121
30.99000, 24.43697
31.02000, 21.29109
31.05000, 21.83565
31.08000, 23.83791
31.11000, 22.14322
31.14000, 22.38988
31.17000, 19.60184
31.20000, 18.58873
31.23000, 13.27753
31.26000, 14.64291
31.29000, 12.92171
31.32000, 9.486496
31.35000, 2.859772
31.38000, 3.190567
31.41000, 5.532883
31.44000, 3.666611
31.47000, 6.907181
31.50000, 4.873810
31.53000, 6.567291
31.56000, 6.117844
31.59000, 2.731277
31.62000, 3.729065
31.65000, 8.589676
31.68000, 11.64352
31.71000, 14.41661
31.74000, 15.38194
31.77000, 15.91350
31.80000, 20.26529
31.83000, 23.90331
31.86000, 21.72249
31.89000, 20.77791
31.92000, 22.97047
31.95000, 25.28520
31.98000, 24.06305
32.01000, 24.47635
32.04000, 24.23834
32.07000, 24.82500
32.10000, 23.37868
32.13000, 19.74284
32.16000, 19.60593
32.19000, 17.68121
32.22000, 12.26553
32.25000, 11.14876
32.28000, 11.11148
32.31000, 10.11421
32.34000, 12.11638
32.37000, 13.63271
32.40000, 13.94803
32.43000, 17.06334
32.46000, 17.91167
32.49000, 20.30197
32.52000, 24.19926
32.55000, 27.48851
32.58000, 33.23274
32.61000, 35.37994
32.64000, 39.40413
32.67000, 39.09822
32.70000, 42.32605
32.73000, 41.08319
32.76000, 46.98204
32.79000, 50.33487
32.82000, 53.53708
32.85000, 59.60434
32.88000, 61.47887
32.91000, 64.40242
32.94000, 65.47401
32.97000, 63.77504
33.00000, 67.40254
33.03000, 64.84023
33.06000, 62.93178
33.09000, 65.03641
33.12000, 60.86287
33.15000, 53.06512
33.18000, 52.36421
33.21000, 47.97310
33.24000, 38.83780
33.27000, 31.31827
33.30000, 28.01955
33.33000, 23.81761
33.36000, 16.81705
33.39000, 17.91748
33.42000, 17.57916
33.45000, 15.88403
33.48000, 8.485611
33.51000, 8.670181
33.54000, 5.948792
33.57000, 3.199677
33.60000, 4.723450
33.63000, 1.356415
33.66000, 0.2899170
33.69000, 1.015762
33.72000, 0.8334810
33.75000, 3.576263
33.78000, 5.293961
33.81000, 2.880295
33.84000, 3.351807
33.87000, 2.646027
33.90000, 0.8769680
33.93000, 5.009064
33.96000, 7.222031
33.99000, 10.05283
34.02000, 15.28731
34.05000, 18.39340
34.08000, 19.71307
34.11000, 21.69591
34.14000, 23.21259
34.17000, 24.15004
34.20000, 20.78413
34.23000, 16.06544
34.26000, 15.21936
34.29000, 14.29596
34.32000, 16.24622
34.35000, 20.16608
34.38000, 22.63449
34.41000, 21.54546
34.44000, 15.99600
34.47000, 11.47008
34.50000, 11.04561
34.53000, 10.65157
34.56000, 9.871918
34.59000, 9.024643
34.62000, 3.773682
34.65000, 3.502930
34.68000, 1.769455
34.71000, 1.105804
34.74000, 4.463318
34.77000, 9.363571
34.80000, 12.10808
34.83000, 15.18620
34.86000, 16.92049
34.89000, 21.03014
34.92000, 26.59323
34.95000, 28.89468
34.98000, 28.08241
35.01000, 27.51276
35.04000, 31.68106
35.07000, 34.31766
35.10000, 34.06689
35.13000, 36.77513
35.16000, 34.44318
35.19000, 32.48256
35.22000, 30.18416
35.25000, 31.20250
35.28000, 33.53558
35.31000, 32.50542
35.34000, 27.06796
35.37000, 18.83926
35.40000, 14.94930
35.43000, 12.11505
35.46000, 11.54852
35.49000, 15.68071
35.52000, 18.92662
35.55000, 19.18723
35.58000, 18.40846
35.61000, 22.16745
35.64000, 22.29237
35.67000, 28.42056
35.70000, 27.25159
35.73000, 29.92105
35.76000, 36.37526
35.79000, 37.62814
35.82000, 36.86171
35.85000, 38.28523
35.88000, 35.50893
35.91000, 33.49977
35.94000, 34.37233
35.97000, 34.47560
36.00000, 30.83153
36.03000, 26.20915
36.06000, 22.38052
36.09000, 18.51167
36.12000, 15.42155
36.15000, 17.34923
36.18000, 21.15660
36.21000, 20.73341
36.24000, 20.48885
36.27000, 18.15584
36.30000, 14.72452
36.33000, 11.73386
36.36000, 7.981918
36.39000, 3.750626
36.42000, 5.203003
36.45000, 7.345016
36.48000, 6.850739
36.51000, 2.794174
36.54000, 0.7159270
36.57000, 1.409424
36.60000, 3.761795
36.63000, 4.989166
36.66000, 11.79121
36.69000, 16.02962
36.72000, 15.47058
36.75000, 13.74591
36.78000, 16.14975
36.81000, 23.05211
36.84000, 30.73692
36.87000, 35.86322
36.90000, 37.73100
36.93000, 40.53723
36.96000, 43.22089
36.99000, 44.13802
37.02000, 45.67654
37.05000, 45.04951
37.08000, 46.99286
37.11000, 46.41862
37.14000, 44.48074
37.17000, 41.67818
37.20000, 38.83998
37.23000, 34.59828
37.26000, 31.65645
37.29000, 23.65292
37.32000, 18.65082
37.35000, 15.31558
37.38000, 13.59259
37.41000, 13.68124
37.44000, 7.678802
37.47000, 5.144485
37.50000, 9.294235
37.53000, 11.51094
37.56000, 14.83173
37.59000, 11.95712
37.62000, 3.753006
37.65000, 2.023438
37.68000, 5.611877
37.71000, 3.332321
37.74000, 2.249374
37.77000, 3.054581
37.80000, 6.207169
37.83000, 12.19682
37.86000, 12.93892
37.89000, 13.68990
37.92000, 17.65755
37.95000, 20.98093
37.98000, 20.21078
38.01000, 19.47205
38.04000, 20.80737
38.07000, 15.88007
38.10000, 13.95090
38.13000, 16.59465
38.16000, 16.92435
38.19000, 15.78018
38.22000, 15.04372
38.25000, 12.05042
38.28000, 8.546555
38.31000, 5.870422
38.34000, 1.135880
38.37000, 0.9655760
38.40000, 1.790970
38.43000, 3.344025
38.46000, 1.530212
38.49000, 0.9780730
38.52000, 2.140411
38.55000, 0.1584010
38.58000, 1.184906
38.61000, 2.086884
38.64000, 0.4756320
38.67000, 1.839691
38.70000, 3.520721
38.73000, 4.808640
38.76000, 7.147018
38.79000, 13.48784
38.82000, 18.86508
38.85000, 21.14369
38.88000, 24.82550
38.91000, 24.82408
38.94000, 27.42281
38.97000, 27.74687
39.00000, 25.90326
39.03000, 25.67700
39.06000, 25.27202
39.09000, 24.52858
39.12000, 25.15869
39.15000, 24.69284
39.18000, 25.87029
39.21000, 27.84032
39.24000, 31.06471
39.27000, 30.75485
39.30000, 29.07153
39.33000, 27.49883
39.36000, 26.69775
39.39000, 28.20135
39.42000, 32.10458
39.45000, 37.78952
39.48000, 37.33516
39.51000, 37.11252
39.54000, 37.43262
39.57000, 34.72682
39.60000, 29.20090
39.63000, 20.14355
39.66000, 15.72160
39.69000, 16.91493
39.72000, 19.90974
39.75000, 23.20256
39.78000, 22.94121
39.81000, 20.56599
39.84000, 19.66646
39.87000, 25.80348
39.90000, 30.34314
39.93000, 29.65903
39.96000, 26.28822
39.99000, 23.49344
40.02000, 22.76512
40.05000, 27.55612
40.08000, 30.38734
40.11000, 32.70276
40.14000, 39.07616
40.17000, 41.36687
40.20000, 36.56485
40.23000, 28.31085
40.26000, 24.55951
40.29000, 20.99817
40.32000, 23.67015
40.35000, 17.92535
40.38000, 17.27980
40.41000, 17.56137
40.44000, 13.41389
40.47000, 17.99025
40.50000, 19.48929
40.53000, 17.70244
40.56000, 18.55623
40.59000, 17.88751
40.62000, 13.69704
40.65000, 12.28555
40.68000, 15.42982
40.71000, 18.44150
40.74000, 15.07011
40.77000, 16.11957
40.80000, 17.43697
40.83000, 17.53700
40.86000, 18.19420
40.89000, 22.86491
40.92000, 24.15921
40.95000, 17.06647
40.98000, 13.75580
41.01000, 6.139587
41.04000, 0.7331540
41.07000, 3.561737
41.10000, 0.5710140
41.13000, 1.622284
41.16000, 6.896332
41.19000, 11.67882
41.22000, 16.38448
41.25000, 21.48491
41.28000, 15.46437
41.31000, 6.269470
41.34000, 1.185425
41.37000, 0.1619260
41.40000, 1.460709
41.43000, 5.766525
41.46000, 3.917679
41.49000, 9.912109
41.52000, 16.97084
41.55000, 16.61258
41.58000, 11.74379
41.61000, 9.445358
41.64000, 8.615158
41.67000, 5.712097
41.70000, 4.018646
41.73000, 5.640930
41.76000, 5.388947
41.79000, 4.717148
41.82000, 1.5488000E-02
41.85000, 0.0000000E+00
##END=



