##NAMES=Larisaite
##RRUFFID=R060879
##IDEAL CHEMISTRY=Na(H_3_O)(U^6+^O_2_)_3_(Se^4+^O_3_)_2_O_2_&#183;4H_2_O
##LOCALITY=Repete mine, San Juan County, Utah, USA
##OWNER=RRUFF
##SOURCE=Michael Scott
##DESCRIPTION=Flattened aggregate of greenish yellow platy crystals
##DIFFRACTION SAMPLE DESCRIPTION=Powder, using Mo radiation
##STATUS=The identification of this mineral has been made only by X-ray diffraction.
##URL=rruff.info/R060879
##CELL PARAMETERS=a: 6.970(5) b: 7.68(2) c: 17.26(1) alpha: 90 beta: 90 gamma: 85.8(2) volume: 920(2) crystal system: monoclinic
5.410000, 0.0000000E+00
5.440000, 3.229739
5.470000, 11.56503
5.500000, 22.09252
5.530000, 8.700853
5.560000, 3.396821
5.590000, 0.1849720
5.620000, 5.496484
5.650000, 19.42756
5.680000, 32.77513
5.710000, 72.04834
5.740000, 110.8718
5.770000, 150.4159
5.800000, 185.5090
5.830000, 210.1922
5.860000, 213.4843
5.890000, 193.3643
5.920000, 148.3125
5.950000, 114.1017
5.980000, 80.57896
6.010000, 76.82275
6.040000, 63.41693
6.070000, 98.54607
6.100000, 127.7820
6.130000, 170.5047
6.160000, 203.1323
6.190000, 199.3545
6.220000, 186.5482
6.250000, 177.9728
6.280000, 160.6998
6.310000, 154.8544
6.340000, 145.2908
6.370000, 127.0339
6.400000, 116.5149
6.430000, 111.0245
6.460000, 121.2662
6.490000, 137.4374
6.520000, 150.0805
6.550000, 154.4819
6.580000, 170.3400
6.610000, 161.3488
6.640000, 162.8665
6.670000, 165.5436
6.700000, 162.6644
6.730000, 159.9905
6.760000, 159.8403
6.790000, 156.8617
6.820000, 148.9831
6.850000, 149.7929
6.880000, 148.5773
6.910000, 158.4611
6.940000, 153.1465
6.970000, 160.4043
7.000000, 167.8130
7.030000, 170.8621
7.060000, 171.7122
7.090000, 180.1035
7.120000, 190.7562
7.150000, 196.9610
7.180000, 190.8280
7.210000, 184.7120
7.240000, 193.1485
7.270000, 204.4325
7.300000, 221.0564
7.330000, 242.8778
7.360000, 256.9993
7.390000, 260.9163
7.420000, 259.0120
7.450000, 256.6009
7.480000, 266.6550
7.510000, 274.1968
7.540000, 279.2381
7.570000, 287.3008
7.600000, 295.8557
7.630000, 299.5640
7.660000, 293.8667
7.690000, 284.1341
7.720000, 271.5609
7.750000, 253.8722
7.780000, 240.6760
7.810000, 229.3375
7.840000, 201.7513
7.870000, 185.3291
7.900000, 187.2805
7.930000, 187.4715
7.960000, 183.4123
7.990000, 172.8792
8.020000, 151.5750
8.050000, 140.3393
8.080000, 140.5414
8.110000, 132.7315
8.140000, 131.9487
8.170000, 132.6325
8.200000, 128.9732
8.230000, 126.4899
8.260000, 130.6421
8.290000, 140.0300
8.320000, 141.9627
8.350000, 136.8702
8.380000, 125.9118
8.410000, 124.4474
8.440000, 121.4162
8.470000, 112.5980
8.500000, 117.2019
8.530000, 122.8975
8.560000, 112.4556
8.590000, 109.9560
8.620000, 108.6768
8.650000, 102.2363
8.680000, 108.6385
8.710000, 116.5611
8.740000, 119.4145
8.770000, 120.4076
8.800000, 122.2411
8.830000, 119.0816
8.860000, 118.5811
8.890000, 122.9897
8.920000, 130.3830
8.950000, 144.9619
8.980000, 162.4501
9.010000, 189.3553
9.040000, 205.6166
9.070000, 230.3513
9.100000, 260.5635
9.130000, 283.3228
9.160000, 303.6288
9.190000, 311.4943
9.220000, 313.7768
9.250000, 309.8849
9.280000, 288.6454
9.310000, 267.1522
9.340000, 246.8105
9.370000, 219.4553
9.400000, 199.1489
9.430000, 173.6792
9.460000, 156.9512
9.490000, 138.4858
9.520000, 123.8099
9.550000, 89.70153
9.580000, 69.08819
9.610000, 62.64783
9.640000, 54.34822
9.670000, 49.05805
9.700000, 44.79479
9.730000, 38.14771
9.760000, 34.63583
9.790000, 30.64503
9.820000, 27.63677
9.850000, 26.25890
9.880000, 24.94054
9.910000, 24.80013
9.940000, 20.39698
9.970000, 6.559898
10.00000, 0.6385190
10.03000, 0.6839070
10.06000, 3.786636
10.09000, 0.5682220
10.12000, 9.070854
10.15000, 13.47295
10.18000, 18.90858
10.21000, 30.85953
10.24000, 30.29903
10.27000, 23.86935
10.30000, 19.16105
10.33000, 9.867233
10.36000, 1.447548
10.39000, 6.388336
10.42000, 2.459549
10.45000, 9.943436
10.48000, 19.80307
10.51000, 12.37107
10.54000, 4.483154
10.57000, 21.54122
10.60000, 30.16231
10.63000, 40.57626
10.66000, 48.00272
10.69000, 65.17112
10.72000, 86.07126
10.75000, 97.98235
10.78000, 117.8941
10.81000, 143.3066
10.84000, 156.8293
10.87000, 176.8626
10.90000, 203.4064
10.93000, 218.6908
10.96000, 231.2853
10.99000, 232.4303
11.02000, 223.5356
11.05000, 217.1107
11.08000, 197.1655
11.11000, 171.0001
11.14000, 147.3242
11.17000, 118.7083
11.20000, 96.33218
11.23000, 81.31564
11.26000, 71.31841
11.29000, 59.58040
11.32000, 40.31203
11.35000, 28.24368
11.38000, 30.11121
11.41000, 44.02856
11.44000, 67.96376
11.47000, 98.78286
11.50000, 137.9905
11.53000, 181.2539
11.56000, 235.6574
11.59000, 305.9475
11.62000, 390.9043
11.65000, 470.0149
11.68000, 553.6951
11.71000, 622.6295
11.74000, 676.2793
11.77000, 727.3200
11.80000, 755.6290
11.83000, 759.9111
11.86000, 741.3787
11.89000, 710.9724
11.92000, 683.5171
11.95000, 652.4669
11.98000, 612.8267
12.01000, 558.3450
12.04000, 501.6203
12.07000, 447.4779
12.10000, 398.9184
12.13000, 362.7686
12.16000, 338.4883
12.19000, 322.6398
12.22000, 318.9292
12.25000, 306.6638
12.28000, 289.5794
12.31000, 278.3026
12.34000, 265.7477
12.37000, 265.4209
12.40000, 263.0613
12.43000, 258.6548
12.46000, 248.8996
12.49000, 239.3385
12.52000, 235.0054
12.55000, 234.2078
12.58000, 245.6928
12.61000, 264.0309
12.64000, 273.7102
12.67000, 278.1682
12.70000, 286.5338
12.73000, 289.2874
12.76000, 290.9387
12.79000, 301.9772
12.82000, 312.7225
12.85000, 345.0133
12.88000, 398.4388
12.91000, 489.8085
12.94000, 611.7625
12.97000, 749.6293
13.00000, 925.0098
13.03000, 1104.583
13.06000, 1303.980
13.09000, 1468.469
13.12000, 1605.463
13.15000, 1720.070
13.18000, 1783.403
13.21000, 1817.695
13.24000, 1804.962
13.27000, 1740.888
13.30000, 1653.321
13.33000, 1526.942
13.36000, 1386.741
13.39000, 1212.766
13.42000, 1025.277
13.45000, 857.7328
13.48000, 695.9512
13.51000, 573.1331
13.54000, 474.9786
13.57000, 397.2635
13.60000, 336.5670
13.63000, 298.1295
13.66000, 267.1532
13.69000, 242.8636
13.72000, 223.4379
13.75000, 217.3400
13.78000, 219.1952
13.81000, 218.7103
13.84000, 213.5656
13.87000, 212.6320
13.90000, 214.3809
13.93000, 207.8953
13.96000, 200.8737
13.99000, 206.8443
14.02000, 219.8087
14.05000, 232.8015
14.08000, 236.1891
14.11000, 246.2344
14.14000, 270.3340
14.17000, 298.9872
14.20000, 344.2332
14.23000, 395.7823
14.26000, 446.2143
14.29000, 508.7790
14.32000, 570.5861
14.35000, 621.9754
14.38000, 674.1573
14.41000, 708.8808
14.44000, 734.9263
14.47000, 753.7034
14.50000, 752.8019
14.53000, 744.5818
14.56000, 722.2429
14.59000, 672.4853
14.62000, 604.1082
14.65000, 521.2820
14.68000, 442.2663
14.71000, 369.5149
14.74000, 301.5366
14.77000, 235.4554
14.80000, 176.6775
14.83000, 137.2242
14.86000, 104.7145
14.89000, 84.28354
14.92000, 72.47298
14.95000, 66.11752
14.98000, 64.84031
15.01000, 63.92146
15.04000, 58.72496
15.07000, 51.56213
15.10000, 41.52159
15.13000, 32.00698
15.16000, 23.99783
15.19000, 11.71653
15.22000, 3.822958
15.25000, 4.216518
15.28000, 6.727364
15.31000, 6.185457
15.34000, 1.379427
15.37000, 13.36999
15.40000, 21.47032
15.43000, 15.93959
15.46000, 10.88496
15.49000, 3.262064
15.52000, 4.035709
15.55000, 7.414824
15.58000, 3.027031
15.61000, 6.230013
15.64000, 5.474312
15.67000, 0.1453250
15.70000, 6.741640
15.73000, 9.192110
15.76000, 12.30760
15.79000, 17.44916
15.82000, 20.36935
15.85000, 20.62957
15.88000, 23.02996
15.91000, 23.94185
15.94000, 17.22557
15.97000, 20.26859
16.00000, 15.28204
16.03000, 0.2044070
16.06000, 5.893493
16.09000, 10.44677
16.12000, 16.03183
16.15000, 11.50552
16.18000, 1.064688
16.21000, 10.99655
16.24000, 27.28106
16.27000, 42.09890
16.30000, 55.57967
16.33000, 66.81333
16.36000, 78.52997
16.39000, 96.49905
16.42000, 108.4007
16.45000, 113.2246
16.48000, 107.8606
16.51000, 106.0288
16.54000, 95.40882
16.57000, 83.80075
16.60000, 81.18160
16.63000, 79.81168
16.66000, 78.85743
16.69000, 79.59558
16.72000, 84.34773
16.75000, 87.63148
16.78000, 87.02500
16.81000, 82.97772
16.84000, 76.51311
16.87000, 76.10563
16.90000, 79.53333
16.93000, 81.01402
16.96000, 82.35794
16.99000, 77.19833
17.02000, 74.34201
17.05000, 60.66061
17.08000, 48.07011
17.11000, 32.93199
17.14000, 15.67621
17.17000, 4.019801
17.20000, 1.417289
17.23000, 3.424741
17.26000, 5.503143
17.29000, 4.077514
17.32000, 2.354661
17.35000, 0.6047740
17.38000, 5.335591
17.41000, 2.577807
17.44000, 0.6021260
17.47000, 12.02363
17.50000, 21.94266
17.53000, 28.85945
17.56000, 35.45360
17.59000, 40.40446
17.62000, 43.12205
17.65000, 48.64791
17.68000, 54.36338
17.71000, 61.98726
17.74000, 68.14764
17.77000, 77.41451
17.80000, 84.75751
17.83000, 88.92697
17.86000, 92.71296
17.89000, 95.90518
17.92000, 94.87343
17.95000, 92.05762
17.98000, 92.46751
18.01000, 88.49338
18.04000, 89.61900
18.07000, 86.98432
18.10000, 91.70527
18.13000, 82.85358
18.16000, 84.69752
18.19000, 82.84696
18.22000, 75.22164
18.25000, 61.28163
18.28000, 42.03680
18.31000, 34.49726
18.34000, 33.44378
18.37000, 32.59618
18.40000, 35.84426
18.43000, 33.74761
18.46000, 26.97622
18.49000, 23.36790
18.52000, 18.51032
18.55000, 12.49173
18.58000, 15.66983
18.61000, 20.97551
18.64000, 29.99173
18.67000, 41.12085
18.70000, 50.19505
18.73000, 63.84515
18.76000, 81.42978
18.79000, 92.21890
18.82000, 107.5567
18.85000, 124.1464
18.88000, 138.5836
18.91000, 150.1062
18.94000, 162.3077
18.97000, 168.9997
19.00000, 173.9376
19.03000, 172.6983
19.06000, 168.8114
19.09000, 164.5614
19.12000, 149.6447
19.15000, 136.5255
19.18000, 129.7549
19.21000, 121.6553
19.24000, 119.3541
19.27000, 118.3436
19.30000, 116.6930
19.33000, 115.6646
19.36000, 110.5303
19.39000, 108.9242
19.42000, 106.3582
19.45000, 96.90624
19.48000, 88.18158
19.51000, 80.71926
19.54000, 71.51307
19.57000, 70.05339
19.60000, 70.39416
19.63000, 70.14679
19.66000, 65.40835
19.69000, 63.73426
19.72000, 64.86681
19.75000, 64.92885
19.78000, 64.88204
19.81000, 68.63837
19.84000, 75.85004
19.87000, 81.95757
19.90000, 85.53027
19.93000, 84.31876
19.96000, 87.35261
19.99000, 83.72579
20.02000, 84.42665
20.05000, 73.66667
20.08000, 63.09238
20.11000, 52.90323
20.14000, 44.66958
20.17000, 28.94120
20.20000, 19.25768
20.23000, 12.11791
20.26000, 7.960615
20.29000, 1.825234
20.32000, 4.700145
20.35000, 8.079940
20.38000, 5.482171
20.41000, 1.619447
20.44000, 5.477556
20.47000, 8.144486
20.50000, 8.391103
20.53000, 0.6283060
20.56000, 2.097933
20.59000, 7.396035
20.62000, 4.066290
20.65000, 4.510258
20.68000, 5.998660
20.71000, 0.9829390
20.74000, 10.74293
20.77000, 26.94023
20.80000, 38.60124
20.83000, 48.35405
20.86000, 58.10088
20.89000, 71.83970
20.92000, 87.00079
20.95000, 111.9739
20.98000, 139.0955
21.01000, 167.9323
21.04000, 196.7723
21.07000, 226.5750
21.10000, 256.4171
21.13000, 292.1852
21.16000, 329.7311
21.19000, 363.2950
21.22000, 387.6663
21.25000, 413.7837
21.28000, 434.0575
21.31000, 440.2973
21.34000, 436.2835
21.37000, 429.0959
21.40000, 416.8206
21.43000, 395.7424
21.46000, 372.8567
21.49000, 345.4943
21.52000, 313.4082
21.55000, 286.8885
21.58000, 266.7751
21.61000, 250.8582
21.64000, 237.0577
21.67000, 219.4035
21.70000, 201.3458
21.73000, 183.8277
21.76000, 171.6469
21.79000, 159.3836
21.82000, 156.2822
21.85000, 163.4072
21.88000, 174.4790
21.91000, 191.7530
21.94000, 226.3034
21.97000, 255.6585
22.00000, 275.8267
22.03000, 293.0894
22.06000, 318.1656
22.09000, 347.8488
22.12000, 367.9811
22.15000, 379.4409
22.18000, 382.4630
22.21000, 376.3391
22.24000, 363.5469
22.27000, 342.4376
22.30000, 312.0278
22.33000, 278.4505
22.36000, 246.6872
22.39000, 220.3318
22.42000, 201.5703
22.45000, 180.8104
22.48000, 159.3050
22.51000, 136.0030
22.54000, 116.9040
22.57000, 96.37032
22.60000, 82.04475
22.63000, 67.33513
22.66000, 55.87104
22.69000, 46.78210
22.72000, 36.38032
22.75000, 35.31336
22.78000, 21.94261
22.81000, 18.35504
22.84000, 16.20001
22.87000, 23.12725
22.90000, 29.78720
22.93000, 36.17077
22.96000, 43.59829
22.99000, 48.66109
23.02000, 55.49989
23.05000, 63.52904
23.08000, 71.75864
23.11000, 78.82519
23.14000, 90.55904
23.17000, 95.80937
23.20000, 104.6946
23.23000, 106.2032
23.26000, 110.6258
23.29000, 124.8323
23.32000, 132.5031
23.35000, 140.6864
23.38000, 155.0490
23.41000, 172.3697
23.44000, 185.9080
23.47000, 203.0846
23.50000, 221.3689
23.53000, 240.2813
23.56000, 258.2715
23.59000, 274.6500
23.62000, 287.0266
23.65000, 292.0835
23.68000, 290.5896
23.71000, 287.5649
23.74000, 274.4590
23.77000, 244.8440
23.80000, 220.7995
23.83000, 204.7887
23.86000, 184.7454
23.89000, 165.3573
23.92000, 152.3171
23.95000, 136.5062
23.98000, 117.8049
24.01000, 100.8803
24.04000, 89.41761
24.07000, 89.21828
24.10000, 102.1285
24.13000, 116.4585
24.16000, 126.3021
24.19000, 157.4030
24.22000, 165.6384
24.25000, 185.4111
24.28000, 198.2690
24.31000, 220.1805
24.34000, 246.7109
24.37000, 267.9666
24.40000, 278.4126
24.43000, 276.9969
24.46000, 274.4382
24.49000, 272.5958
24.52000, 262.6264
24.55000, 245.4229
24.58000, 227.4405
24.61000, 199.7714
24.64000, 168.3445
24.67000, 142.3338
24.70000, 114.9341
24.73000, 89.88210
24.76000, 62.49994
24.79000, 44.18381
24.82000, 32.15730
24.85000, 24.01116
24.88000, 17.58543
24.91000, 11.91968
24.94000, 8.484358
24.97000, 1.579144
25.00000, 1.395942
25.03000, 2.208402
25.06000, 8.222994
25.09000, 16.00780
25.12000, 18.59274
25.15000, 20.89931
25.18000, 17.07411
25.21000, 17.88024
25.24000, 15.01676
25.27000, 5.583651
25.30000, 0.1808920
25.33000, 3.908353
25.36000, 3.526402
25.39000, 7.854607
25.42000, 9.683246
25.45000, 1.137446
25.48000, 7.258386
25.51000, 7.062683
25.54000, 7.689527
25.57000, 5.400975
25.60000, 6.124060
25.63000, 4.799596
25.66000, 1.343978
25.69000, 6.440259
25.72000, 9.159914
25.75000, 5.634148
25.78000, 3.807685
25.81000, 1.460557
25.84000, 2.282835
25.87000, 4.806826
25.90000, 4.1789999E-03
25.93000, 0.2293860
25.96000, 6.426123
25.99000, 2.772349
26.02000, 3.146753
26.05000, 4.363376
26.08000, 9.811884
26.11000, 16.57544
26.14000, 28.59809
26.17000, 44.09732
26.20000, 53.73421
26.23000, 57.86195
26.26000, 70.58983
26.29000, 89.97500
26.32000, 113.9881
26.35000, 138.9402
26.38000, 160.4548
26.41000, 185.4553
26.44000, 210.5792
26.47000, 234.3504
26.50000, 254.1856
26.53000, 271.1812
26.56000, 279.4167
26.59000, 276.7124
26.62000, 266.5578
26.65000, 259.3169
26.68000, 248.8997
26.71000, 246.2453
26.74000, 242.5909
26.77000, 241.3362
26.80000, 236.4714
26.83000, 226.1166
26.86000, 221.7015
26.89000, 219.0663
26.92000, 221.6406
26.95000, 232.6050
26.98000, 241.8291
27.01000, 246.3231
27.04000, 251.4867
27.07000, 252.1405
27.10000, 247.7036
27.13000, 243.8170
27.16000, 237.2101
27.19000, 231.8231
27.22000, 223.6458
27.25000, 210.6867
27.28000, 196.6510
27.31000, 178.1696
27.34000, 156.1718
27.37000, 135.6442
27.40000, 119.7971
27.43000, 104.2313
27.46000, 94.32774
27.49000, 82.16610
27.52000, 63.75905
27.55000, 45.95862
27.58000, 32.93496
27.61000, 19.25811
27.64000, 9.168786
27.67000, 4.642933
27.70000, 2.574574
27.73000, 1.876766
27.76000, 3.336051
27.79000, 6.013206
27.82000, 8.897724
27.85000, 10.34077
27.88000, 8.813078
27.91000, 5.420863
27.94000, 7.032036
27.97000, 17.55499
28.00000, 19.11021
28.03000, 16.38703
28.06000, 11.11553
28.09000, 6.683924
28.12000, 7.032150
28.15000, 6.340137
28.18000, 4.617743
28.21000, 3.214701
28.24000, 2.758798
28.27000, 0.2305940
28.30000, 0.6149620
28.33000, 2.968269
28.36000, 2.057248
28.39000, 3.582267
28.42000, 11.65134
28.45000, 18.10995
28.48000, 15.87826
28.51000, 14.07626
28.54000, 11.13377
28.57000, 13.40478
28.60000, 14.50495
28.63000, 21.92819
28.66000, 27.01443
28.69000, 24.90023
28.72000, 24.35565
28.75000, 23.57084
28.78000, 21.36553
28.81000, 24.90999
28.84000, 28.31410
28.87000, 24.72786
28.90000, 19.77816
28.93000, 15.76742
28.96000, 16.19508
28.99000, 25.28756
29.02000, 42.23970
29.05000, 41.67726
29.08000, 32.79611
29.11000, 28.32802
29.14000, 25.76790
29.17000, 20.69620
29.20000, 16.21244
29.23000, 13.43244
29.26000, 11.60170
29.29000, 14.04041
29.32000, 11.15997
29.35000, 11.20902
29.38000, 12.95688
29.41000, 8.139689
29.44000, 4.092617
29.47000, 1.645404
29.50000, 3.658353
29.53000, 0.2540120
29.56000, 3.677876
29.59000, 6.992442
29.62000, 8.194142
29.65000, 9.893262
29.68000, 8.089421
29.71000, 5.034273
29.74000, 4.966115
29.77000, 0.8249030
29.80000, 3.022602
29.83000, 3.139244
29.86000, 2.646817
29.89000, 1.278183
29.92000, 1.533187
29.95000, 6.178006
29.98000, 11.02259
30.01000, 11.12722
30.04000, 10.04209
30.07000, 5.526956
30.10000, 4.141639
30.13000, 8.486115
30.16000, 10.75056
30.19000, 6.844667
30.22000, 1.988864
30.25000, 0.9628370
30.28000, 4.816852
30.31000, 12.43045
30.34000, 20.57413
30.37000, 30.52758
30.40000, 31.80091
30.43000, 29.88424
30.46000, 34.82738
30.49000, 32.93026
30.52000, 25.04322
30.55000, 21.47606
30.58000, 16.06866
30.61000, 8.991158
30.64000, 6.623697
30.67000, 5.086150
30.70000, 5.858386
30.73000, 9.090672
30.76000, 5.442794
30.79000, 6.618800
30.82000, 3.467500
30.85000, 3.082359
30.88000, 2.409214
30.91000, 6.442553
30.94000, 10.03392
30.97000, 9.915435
31.00000, 1.907049
31.03000, 1.218595
31.06000, 7.509990
31.09000, 7.791491
31.12000, 10.84275
31.15000, 14.50398
31.18000, 17.63514
31.21000, 26.28606
31.24000, 36.04683
31.27000, 40.37384
31.30000, 37.76665
31.33000, 34.82452
31.36000, 36.05665
31.39000, 37.39859
31.42000, 41.06349
31.45000, 45.15900
31.48000, 50.47981
31.51000, 52.12044
31.54000, 52.71521
31.57000, 51.28978
31.60000, 52.17164
31.63000, 52.53885
31.66000, 46.92206
31.69000, 45.46986
31.72000, 49.07854
31.75000, 55.71329
31.78000, 60.31007
31.81000, 63.55863
31.84000, 70.41197
31.87000, 71.37396
31.90000, 70.19904
31.93000, 77.12559
31.96000, 92.48745
31.99000, 104.7004
32.02000, 106.9824
32.05000, 105.1240
32.08000, 102.8949
32.11000, 104.0653
32.14000, 106.8153
32.17000, 105.4250
32.20000, 102.5144
32.23000, 101.2753
32.26000, 97.55759
32.29000, 95.14149
32.32000, 92.23457
32.35000, 92.15736
32.38000, 94.96976
32.41000, 102.7616
32.44000, 109.9738
32.47000, 110.0675
32.50000, 103.3029
32.53000, 97.98032
32.56000, 87.92916
32.59000, 83.83750
32.62000, 82.34555
32.65000, 76.29348
32.68000, 77.59330
32.71000, 74.80574
32.74000, 78.57823
32.77000, 71.99290
32.80000, 68.13886
32.83000, 65.50597
32.86000, 59.45287
32.89000, 48.76892
32.92000, 41.53494
32.95000, 38.35026
32.98000, 35.82644
33.01000, 34.70369
33.04000, 33.56717
33.07000, 34.71681
33.10000, 35.36060
33.13000, 31.53738
33.16000, 37.67416
33.19000, 37.49482
33.22000, 35.74083
33.25000, 28.76281
33.28000, 26.38723
33.31000, 28.24277
33.34000, 31.44199
33.37000, 34.37393
33.40000, 36.15574
33.43000, 33.78709
33.46000, 38.37198
33.49000, 46.73895
33.52000, 48.94731
33.55000, 79.77306
33.58000, 67.50209
33.61000, 81.14514
33.64000, 59.66131
33.67000, 67.67769
33.70000, 71.97406
33.73000, 74.06055
33.76000, 75.83704
33.79000, 80.64394
33.82000, 88.31744
33.85000, 92.02029
33.88000, 91.65726
33.91000, 90.38464
33.94000, 94.05193
33.97000, 92.57920
34.00000, 92.93685
34.03000, 102.1745
34.06000, 107.2623
34.09000, 109.9001
34.12000, 111.3882
34.15000, 119.4763
34.18000, 132.4245
34.21000, 133.8640
34.24000, 134.4054
34.27000, 133.3190
34.30000, 126.9649
34.33000, 127.6630
34.36000, 126.0832
34.39000, 117.8741
34.42000, 114.7673
34.45000, 108.3867
34.48000, 97.68176
34.51000, 86.90321
34.54000, 70.29514
34.57000, 52.84722
34.60000, 41.12944
34.63000, 32.90117
34.66000, 29.86372
34.69000, 25.01660
34.72000, 21.94966
34.75000, 16.37273
34.78000, 12.66508
34.81000, 14.14972
34.84000, 3.913432
34.87000, 0.1525480
34.90000, 5.607230
34.93000, 0.2873850
34.96000, 3.802925
34.99000, 7.259039
35.02000, 8.092675
35.05000, 0.8843370
35.08000, 6.739623
35.11000, 5.091977
35.14000, 7.056444
35.17000, 7.139672
35.20000, 5.579375
35.23000, 1.221904
35.26000, 2.934908
35.29000, 2.632155
35.32000, 1.819419
35.35000, 4.156981
35.38000, 7.104803
35.41000, 7.272882
35.44000, 3.982739
35.47000, 7.921466
35.50000, 12.14264
35.53000, 15.95374
35.56000, 20.92453
35.59000, 26.41670
35.62000, 29.30198
35.65000, 28.44698
35.68000, 30.82459
35.71000, 37.28241
35.74000, 42.42021
35.77000, 46.14883
35.80000, 56.30933
35.83000, 61.52045
35.86000, 66.13205
35.89000, 71.98083
35.92000, 77.77948
35.95000, 81.59831
35.98000, 88.25712
36.01000, 89.73145
36.04000, 96.13657
36.07000, 100.0425
36.10000, 103.0712
36.13000, 108.0479
36.16000, 112.5003
36.19000, 117.3493
36.22000, 120.3582
36.25000, 117.6571
36.28000, 119.8859
36.31000, 118.6747
36.34000, 116.1635
36.37000, 120.6022
36.40000, 123.4308
36.43000, 119.2593
36.46000, 112.9177
36.49000, 104.8159
36.52000, 97.10422
36.55000, 97.91239
36.58000, 98.91047
36.61000, 96.48845
36.64000, 91.01637
36.67000, 83.88487
36.70000, 75.78561
36.73000, 69.06821
36.76000, 62.52363
36.79000, 60.01303
36.82000, 60.48635
36.85000, 62.88456
36.88000, 66.68686
36.91000, 60.16253
36.94000, 53.98161
36.97000, 52.72277
37.00000, 57.71617
37.03000, 64.02161
37.06000, 61.40775
37.09000, 61.21395
37.12000, 58.42993
37.15000, 49.28556
37.18000, 40.88117
37.21000, 31.96647
37.24000, 30.23180
37.27000, 29.15671
37.30000, 28.68149
37.33000, 26.60602
37.36000, 19.18048
37.39000, 8.404693
37.42000, 0.8987650
37.45000, 1.752532
37.48000, 6.935977
37.51000, 13.42934
37.54000, 19.40240
37.57000, 20.52532
37.60000, 17.35808
37.63000, 23.06059
37.66000, 30.00295
37.69000, 35.98495
37.72000, 45.13691
37.75000, 51.32863
37.78000, 50.84190
37.81000, 54.12788
37.84000, 47.77400
37.87000, 44.40577
37.90000, 47.13574
37.93000, 47.67185
37.96000, 49.99501
37.99000, 55.59895
38.02000, 55.83316
38.05000, 54.20594
38.08000, 53.03899
38.11000, 41.80525
38.14000, 35.79300
38.17000, 28.67838
38.20000, 29.26381
38.23000, 36.25474
38.26000, 42.81895
38.29000, 44.43906
38.32000, 39.13855
38.35000, 38.12758
38.38000, 40.34624
38.41000, 37.06949
38.44000, 34.85410
38.47000, 38.66092
38.50000, 36.04702
38.53000, 37.14268
38.56000, 41.78869
38.59000, 43.18848
38.62000, 38.56706
38.65000, 34.96929
38.68000, 31.96089
38.71000, 30.79404
38.74000, 34.35979
38.77000, 29.67759
38.80000, 26.28897
38.83000, 29.71357
38.86000, 23.65707
38.89000, 19.11028
38.92000, 18.43340
38.95000, 13.81626
38.98000, 5.888919
39.01000, 1.139302
39.04000, 4.169482
39.07000, 0.5814760
39.10000, 0.6291170
39.13000, 3.259087
39.16000, 4.342016
39.19000, 6.644308
39.22000, 1.531025
39.25000, 4.661946
39.28000, 7.588041
39.31000, 10.13724
39.34000, 1.125776
39.37000, 3.990436
39.40000, 2.204395
39.43000, 2.983371
39.46000, 6.269793
39.49000, 14.42285
39.52000, 15.49840
39.55000, 9.353375
39.58000, 2.685079
39.61000, 4.433003
39.64000, 0.6697540
39.67000, 3.035418
39.70000, 1.625923
39.73000, 1.239698
39.76000, 8.949680
39.79000, 9.891735
39.82000, 8.423368
39.85000, 12.23460
39.88000, 11.01229
39.91000, 13.67449
39.94000, 10.12621
39.97000, 5.975319
40.00000, 9.778003
40.03000, 18.45621
40.06000, 29.04892
40.09000, 34.98124
40.12000, 29.91298
40.15000, 31.45421
40.18000, 33.24485
40.21000, 28.80505
40.24000, 30.88472
40.27000, 33.20386
40.30000, 35.97252
40.33000, 48.80059
40.36000, 54.04810
40.39000, 52.75497
40.42000, 51.59142
40.45000, 49.59709
40.48000, 49.09819
40.51000, 47.00664
40.54000, 48.06026
40.57000, 47.08344
40.60000, 47.22578
40.63000, 44.48743
40.66000, 39.66842
40.69000, 40.96861
40.72000, 38.84810
40.75000, 29.35699
40.78000, 23.09900
40.81000, 18.19342
40.84000, 12.06647
40.87000, 18.54189
40.90000, 23.77492
40.93000, 15.46169
40.96000, 10.07531
40.99000, 10.16015
41.02000, 6.728029
41.05000, 7.530579
41.08000, 7.822940
41.11000, 8.463167
41.14000, 7.930325
41.17000, 13.21258
41.20000, 15.53197
41.23000, 20.24666
41.26000, 27.37374
41.29000, 22.32495
41.32000, 11.21746
41.35000, 2.301797
41.38000, 3.591854
41.41000, 0.8519890
41.44000, 1.331167
41.47000, 0.8176960
41.50000, 1.502819
41.53000, 0.6936120
41.56000, 4.156206
41.59000, 4.320193
41.62000, 8.880190
41.65000, 9.242514
41.68000, 6.360950
41.71000, 5.982520
41.74000, 4.061251
41.77000, 6.300099
41.80000, 10.16610
41.83000, 6.437397
41.86000, 10.51475
41.89000, 12.04733
41.92000, 11.34616
41.95000, 9.842225
41.98000, 6.244392
42.01000, 3.385786
42.04000, 7.732283
42.07000, 13.54326
42.10000, 14.29924
42.13000, 16.55917
42.16000, 13.19546
42.19000, 9.190464
42.22000, 18.19905
42.25000, 27.63392
42.28000, 35.05688
42.31000, 34.36328
42.34000, 29.15095
42.37000, 23.11068
42.40000, 20.14719
42.43000, 21.29315
42.46000, 21.27625
42.49000, 17.48945
42.52000, 23.39368
42.55000, 24.96595
42.58000, 21.01243
42.61000, 18.19499
42.64000, 9.925366
42.67000, 1.495799
42.70000, 9.4443001E-02
42.73000, 2.299455
42.76000, 3.411243
42.79000, 2.579136
42.82000, 1.860976
42.85000, 5.312809
42.88000, 11.47675
42.91000, 5.740914
42.94000, 9.319602
42.97000, 0.4232720
43.00000, 7.864072
43.03000, 11.04248
43.06000, 9.972134
43.09000, 13.31407
43.12000, 15.36217
43.15000, 17.24363
43.18000, 16.01590
43.21000, 15.02874
43.24000, 14.03352
43.27000, 17.47082
43.30000, 19.70939
43.33000, 28.62389
43.36000, 37.04691
43.39000, 37.92524
43.42000, 35.32215
43.45000, 38.62752
43.48000, 42.89148
43.51000, 44.42696
43.54000, 46.29197
43.57000, 48.16661
43.60000, 49.86548
43.63000, 49.71412
43.66000, 53.35435
43.69000, 55.42507
43.72000, 56.00335
43.75000, 50.95725
43.78000, 52.91658
43.81000, 51.91154
43.84000, 50.67704
43.87000, 53.30103
43.90000, 48.49547
43.93000, 50.83144
43.96000, 50.15984
43.99000, 50.70081
44.02000, 48.26023
44.05000, 46.59306
44.08000, 47.68431
44.11000, 47.07313
44.14000, 43.85254
44.17000, 43.80447
44.20000, 36.57192
44.23000, 32.79706
44.26000, 35.93284
44.29000, 39.96033
44.32000, 47.34236
44.35000, 41.42902
44.38000, 29.35481
44.41000, 26.69454
44.44000, 32.73958
44.47000, 34.47425
44.50000, 37.27517
44.53000, 34.57428
44.56000, 23.59654
44.59000, 13.05521
44.62000, 13.25734
44.65000, 15.44371
44.68000, 17.90189
44.71000, 21.87071
44.74000, 27.70131
44.77000, 30.16340
44.80000, 27.18932
44.83000, 18.32417
44.86000, 13.60996
44.89000, 12.54316
44.92000, 18.18213
44.95000, 18.10617
44.98000, 18.47605
45.01000, 21.14548
45.04000, 19.23470
45.07000, 14.27847
45.10000, 16.54202
45.13000, 20.44000
45.16000, 23.26867
45.19000, 27.05677
45.22000, 26.83660
45.25000, 24.98225
45.28000, 27.12401
45.31000, 26.70290
45.34000, 26.66877
45.37000, 26.75597
45.40000, 27.22521
45.43000, 26.42906
45.46000, 27.44562
45.49000, 29.08804
45.52000, 25.90389
45.55000, 26.25743
45.58000, 17.98351
45.61000, 13.63999
45.64000, 4.945323
45.67000, 0.9265300
45.70000, 3.200392
45.73000, 1.166475
45.76000, 2.631835
45.79000, 7.746635
45.82000, 6.531063
45.85000, 10.16253
45.88000, 11.11400
45.91000, 14.84066
45.94000, 17.98826
45.97000, 14.56010
46.00000, 19.77104
46.03000, 21.69620
46.06000, 18.66539
46.09000, 23.22664
46.12000, 21.41362
46.15000, 13.53051
46.18000, 10.50809
46.21000, 11.67319
46.24000, 5.758495
46.27000, 7.381641
46.30000, 5.921597
46.33000, 8.220883
46.36000, 11.14527
46.39000, 13.26311
46.42000, 11.73609
46.45000, 11.42220
46.48000, 5.930560
46.51000, 2.085818
46.54000, 2.308786
46.57000, 3.438718
46.60000, 1.514292
46.63000, 5.045241
46.66000, 6.959386
46.69000, 13.51192
46.72000, 16.50419
46.75000, 17.23573
46.78000, 14.02870
46.81000, 2.607283
46.84000, 0.8593600
46.87000, 2.866797
46.90000, 3.176509
46.93000, 1.531475
46.96000, 0.2098590
46.99000, 8.453999
47.02000, 11.12518
47.05000, 11.33871
47.08000, 6.385777
47.11000, 8.164246
47.14000, 4.923013
47.17000, 0.1216580
47.20000, 2.994034
47.23000, 5.981212
47.26000, 6.466832
47.29000, 14.71292
47.32000, 22.96441
47.35000, 31.00241
47.38000, 26.87370
47.41000, 21.15442
47.44000, 20.39394
47.47000, 18.74890
47.50000, 19.55737
47.53000, 17.48657
47.56000, 14.72437
47.59000, 12.54730
47.62000, 10.31440
47.65000, 9.193325
47.68000, 6.564922
47.71000, 8.943698
47.74000, 7.193390
47.77000, 9.908216
47.80000, 14.88919
47.83000, 19.22820
47.86000, 12.35136
47.89000, 4.581820
47.92000, 4.507103
47.95000, 1.658588
47.98000, 0.8358590
48.01000, 1.485464
48.04000, 0.5341080
48.07000, 3.014806
48.10000, 3.123526
48.13000, 0.2152140
48.16000, 0.5123850
48.19000, 0.7799220
48.22000, 0.6981150
48.25000, 1.810695
48.28000, 10.19179
48.31000, 7.417099
48.34000, 12.20863
48.37000, 14.18894
48.40000, 15.05427
48.43000, 15.82657
48.46000, 18.33867
48.49000, 24.29344
48.52000, 25.65467
48.55000, 26.29208
48.58000, 23.27148
48.61000, 26.31079
48.64000, 30.92871
48.67000, 36.72977
48.70000, 44.71748
48.73000, 51.04542
48.76000, 47.74684
48.79000, 46.54718
48.82000, 43.15565
48.85000, 32.14544
48.88000, 27.14067
48.91000, 29.54528
48.94000, 33.00972
48.97000, 31.41820
49.00000, 37.38787
49.03000, 39.94488
49.06000, 34.93132
49.09000, 31.33881
49.12000, 29.22174
49.15000, 23.29498
49.18000, 17.58893
49.21000, 13.75556
49.24000, 4.339636
49.27000, 1.333299
49.30000, 1.751408
49.33000, 3.669955
49.36000, 0.7831980
49.39000, 6.657710
49.42000, 4.393294
49.45000, 14.19417
49.48000, 3.646677
49.51000, 1.338622
49.54000, 0.2300600
49.57000, 3.923224
49.60000, 12.37253
49.63000, 8.099784
49.66000, 7.838872
49.69000, 15.82629
49.72000, 12.79937
49.75000, 10.32350
49.78000, 19.69086
49.81000, 21.54244
49.84000, 10.55789
49.87000, 4.093707
49.90000, 11.54144
49.93000, 11.46184
49.96000, 6.815073
49.99000, 1.290371
50.02000, 3.852796
50.05000, 8.452270
50.08000, 15.69443
50.11000, 20.79369
50.14000, 9.290415
50.17000, 2.392570
50.20000, 0.1411910
50.23000, 2.480570
50.26000, 5.448822
50.29000, 5.248659
50.32000, 1.4420000E-03
50.35000, 0.0000000E+00
##END=



