##NAMES=Perite
##RRUFFID=R060766
##IDEAL CHEMISTRY=Pb^2+^Bi^3+^O_2_Cl
##LOCALITY=Blue Bell mine, San Bernardino, California, USA
##OWNER=RRUFF
##SOURCE=Michael Scott
##DESCRIPTION=Pale straw-yellow granular, associated with fluorite, hemimorphite, quartz and chlorargyrite
##DIFFRACTION SAMPLE DESCRIPTION=Powder, using Mo radiation
##STATUS=The identification of this mineral has been confirmed by X-ray diffraction.
##URL=rruff.info/R060766
##CELL PARAMETERS=a: 5.5824(9) b: 5.586(2) c: 12.418(3) alpha: 90 beta: 90 gamma: 90 volume: 387.20(8) crystal system: orthorhombic
5.000000, 0.0000000E+00
5.030000, 2.8248999E-02
5.060000, 0.1035960
5.090000, 6.633968
5.120000, 6.464731
5.150000, 1.789172
5.180000, 3.700775
5.210000, 9.924677
5.240000, 9.871745
5.270000, 8.864549
5.300000, 6.473238
5.330000, 4.546332
5.360000, 4.2259000E-02
5.390000, 7.7747002E-02
5.420000, 0.9173290
5.450000, 0.1662280
5.480000, 0.8218670
5.510000, 3.600453
5.540000, 4.372658
5.570000, 7.275445
5.600000, 12.84295
5.630000, 11.01393
5.660000, 7.418812
5.690000, 2.077569
5.720000, 1.757624
5.750000, 3.804773
5.780000, 3.324213
5.810000, 5.181375
5.840000, 7.968574
5.870000, 6.711492
5.900000, 11.57002
5.930000, 14.71006
5.960000, 15.94584
5.990000, 19.24136
6.020000, 22.90267
6.050000, 28.09910
6.080000, 26.66494
6.110000, 20.47559
6.140000, 14.21274
6.170000, 10.56626
6.200000, 16.86719
6.230000, 28.62263
6.260000, 37.48489
6.290000, 45.28036
6.320000, 47.67148
6.350000, 49.57658
6.380000, 63.40825
6.410000, 80.92386
6.440000, 100.6632
6.470000, 117.9457
6.500000, 130.2139
6.530000, 136.2106
6.560000, 131.2596
6.590000, 125.3752
6.620000, 123.0269
6.650000, 121.1285
6.680000, 116.5695
6.710000, 114.5698
6.740000, 108.5476
6.770000, 103.3182
6.800000, 96.94019
6.830000, 84.37179
6.860000, 77.97957
6.890000, 76.87320
6.920000, 76.65376
6.950000, 79.45581
6.980000, 80.58401
7.010000, 82.10671
7.040000, 84.19922
7.070000, 84.61824
7.100000, 91.32707
7.130000, 94.34444
7.160000, 92.92348
7.190000, 102.0203
7.220000, 113.1515
7.250000, 118.5454
7.280000, 115.2920
7.310000, 113.6926
7.340000, 113.3806
7.370000, 114.9537
7.400000, 119.4894
7.430000, 121.8895
7.460000, 124.2493
7.490000, 126.4207
7.520000, 124.3517
7.550000, 120.7175
7.580000, 114.6361
7.610000, 113.1168
7.640000, 110.2994
7.670000, 99.29385
7.700000, 93.69016
7.730000, 92.54150
7.760000, 90.25561
7.790000, 86.08853
7.820000, 87.25935
7.850000, 89.33922
7.880000, 89.95176
7.910000, 87.18932
7.940000, 82.33771
7.970000, 78.46881
8.000000, 77.62183
8.030000, 72.11848
8.060000, 68.07176
8.090000, 67.59356
8.120000, 67.66096
8.150000, 71.33784
8.180000, 72.70213
8.210000, 68.52174
8.240000, 66.85841
8.270000, 64.84858
8.300000, 63.21679
8.330000, 62.83587
8.360000, 65.65732
8.390000, 62.46621
8.420000, 62.20099
8.450000, 62.66360
8.480000, 68.59572
8.510000, 65.58432
8.540000, 68.16227
8.570000, 71.34082
8.600000, 63.60336
8.630000, 57.37278
8.660000, 55.84444
8.690000, 51.79609
8.720000, 48.76471
8.750000, 47.96970
8.780000, 51.79371
8.810000, 56.09751
8.840000, 55.54249
8.870000, 54.97235
8.900000, 56.82566
8.930000, 56.89488
8.960000, 52.75026
8.990000, 43.89645
9.020000, 35.72184
9.050000, 34.50742
9.080000, 39.43609
9.110000, 44.91285
9.140000, 47.62909
9.170000, 49.87060
9.200000, 49.83291
9.230000, 49.46481
9.260000, 46.25691
9.290000, 40.39705
9.320000, 36.79297
9.350000, 34.26114
9.380000, 29.38433
9.410000, 25.01656
9.440000, 24.29853
9.470000, 23.51197
9.500000, 24.31149
9.530000, 29.84431
9.560000, 30.50242
9.590000, 25.05720
9.620000, 19.62246
9.650000, 20.07242
9.680000, 25.30003
9.710000, 24.62705
9.740000, 23.26140
9.770000, 25.19297
9.800000, 25.95767
9.830000, 23.22855
9.860000, 22.81098
9.890000, 19.19973
9.920000, 17.51640
9.950000, 19.84376
9.980000, 24.04553
10.01000, 27.27579
10.04000, 26.03106
10.07000, 21.35831
10.10000, 22.67744
10.13000, 21.38918
10.16000, 16.18254
10.19000, 16.20841
10.22000, 18.90173
10.25000, 17.52644
10.28000, 13.63902
10.31000, 10.64300
10.34000, 11.32714
10.37000, 16.18926
10.40000, 22.53819
10.43000, 24.16208
10.46000, 26.79210
10.49000, 31.95211
10.52000, 42.62107
10.55000, 58.85624
10.58000, 80.61588
10.61000, 112.6771
10.64000, 157.4039
10.67000, 212.8156
10.70000, 280.0233
10.73000, 361.7922
10.76000, 433.7061
10.79000, 504.9730
10.82000, 564.5694
10.85000, 596.1125
10.88000, 596.9338
10.91000, 568.7929
10.94000, 522.5815
10.97000, 459.8179
11.00000, 391.0777
11.03000, 323.5059
11.06000, 256.9753
11.09000, 199.5142
11.12000, 148.0099
11.15000, 105.8720
11.18000, 78.31141
11.21000, 58.49314
11.24000, 46.15134
11.27000, 35.09875
11.30000, 26.40742
11.33000, 19.37069
11.36000, 12.27412
11.39000, 8.061806
11.42000, 4.049353
11.45000, 0.1427580
11.48000, 0.9939630
11.51000, 1.714565
11.54000, 0.9452320
11.57000, 1.844959
11.60000, 0.5540940
11.63000, 1.997041
11.66000, 2.122027
11.69000, 2.190919
11.72000, 0.9242860
11.75000, 2.122677
11.78000, 1.546589
11.81000, 9.7759999E-02
11.84000, 0.4967780
11.87000, 1.261028
11.90000, 0.3301010
11.93000, 3.687896
11.96000, 3.694959
11.99000, 3.456207
12.02000, 0.5545110
12.05000, 2.913347
12.08000, 5.132865
12.11000, 3.360615
12.14000, 0.3535260
12.17000, 0.9031990
12.20000, 3.657953
12.23000, 2.250293
12.26000, 0.2984960
12.29000, 0.7574520
12.32000, 0.4343770
12.35000, 0.5235140
12.38000, 1.576329
12.41000, 1.365465
12.44000, 0.5182430
12.47000, 0.2218770
12.50000, 9.9614002E-02
12.53000, 1.109080
12.56000, 0.8173390
12.59000, 1.344506
12.62000, 1.096095
12.65000, 1.141708
12.68000, 1.757192
12.71000, 2.341515
12.74000, 1.374413
12.77000, 6.9784999E-02
12.80000, 1.142018
12.83000, 2.483663
12.86000, 4.963670
12.89000, 7.984582
12.92000, 20.89916
12.95000, 36.45827
12.98000, 47.64415
13.01000, 59.13001
13.04000, 72.65755
13.07000, 88.63079
13.10000, 99.68888
13.13000, 109.7466
13.16000, 114.3058
13.19000, 111.0362
13.22000, 100.1653
13.25000, 89.00204
13.28000, 79.82549
13.31000, 68.41159
13.34000, 54.51429
13.37000, 40.90584
13.40000, 31.11852
13.43000, 22.34846
13.46000, 14.70780
13.49000, 5.921604
13.52000, 0.6123840
13.55000, 0.4470810
13.58000, 0.2574560
13.61000, 2.727619
13.64000, 2.963310
13.67000, 5.798763
13.70000, 5.384795
13.73000, 5.227505
13.76000, 6.919771
13.79000, 9.632788
13.82000, 12.11210
13.85000, 18.79921
13.88000, 30.63577
13.91000, 42.10467
13.94000, 62.03775
13.97000, 92.05772
14.00000, 133.0766
14.03000, 195.0511
14.06000, 281.8265
14.09000, 392.9516
14.12000, 512.3062
14.15000, 648.3361
14.18000, 791.1785
14.21000, 940.2804
14.24000, 1083.024
14.27000, 1195.977
14.30000, 1273.512
14.33000, 1297.817
14.36000, 1286.099
14.39000, 1242.489
14.42000, 1169.084
14.45000, 1087.590
14.48000, 1012.360
14.51000, 960.1648
14.54000, 924.6744
14.57000, 904.0868
14.60000, 880.6120
14.63000, 844.6193
14.66000, 806.0758
14.69000, 755.1177
14.72000, 683.2396
14.75000, 600.7720
14.78000, 509.2659
14.81000, 411.5500
14.84000, 318.6912
14.87000, 242.6084
14.90000, 185.3057
14.93000, 137.1392
14.96000, 96.97870
14.99000, 69.53159
15.02000, 51.69216
15.05000, 44.46181
15.08000, 41.85432
15.11000, 37.99725
15.14000, 34.88717
15.17000, 28.86198
15.20000, 24.24284
15.23000, 21.18879
15.26000, 15.11495
15.29000, 11.71451
15.32000, 12.31907
15.35000, 10.11587
15.38000, 8.624951
15.41000, 10.67847
15.44000, 8.361350
15.47000, 7.357176
15.50000, 5.366076
15.53000, 3.048804
15.56000, 3.971016
15.59000, 4.594257
15.62000, 2.473917
15.65000, 1.496085
15.68000, 8.1366003E-02
15.71000, 0.3008220
15.74000, 1.505574
15.77000, 1.480265
15.80000, 2.167631
15.83000, 1.245436
15.86000, 2.152106
15.89000, 0.7354400
15.92000, 5.356005
15.95000, 11.01867
15.98000, 11.75887
16.01000, 10.82131
16.04000, 10.57792
16.07000, 12.01379
16.10000, 11.49179
16.13000, 11.97418
16.16000, 8.896220
16.19000, 4.525589
16.22000, 0.2621260
16.25000, 2.450273
16.28000, 5.997623
16.31000, 3.334051
16.34000, 1.765643
16.37000, 3.514937
16.40000, 2.056765
16.43000, 0.2017550
16.46000, 1.071102
16.49000, 0.4348980
16.52000, 0.2333510
16.55000, 0.4189420
16.58000, 0.4440710
16.61000, 0.1874180
16.64000, 0.4769150
16.67000, 2.720561
16.70000, 3.219725
16.73000, 0.3325710
16.76000, 0.5382250
16.79000, 1.818792
16.82000, 6.953815
16.85000, 8.239124
16.88000, 6.805730
16.91000, 3.578620
16.94000, 0.6426960
16.97000, 9.3062997E-02
17.00000, 0.1086700
17.03000, 0.4110010
17.06000, 3.949300
17.09000, 5.768071
17.12000, 4.570960
17.15000, 2.244299
17.18000, 1.286486
17.21000, 0.5396120
17.24000, 0.6051620
17.27000, 0.1553220
17.30000, 0.2573690
17.33000, 0.2255410
17.36000, 0.1537140
17.39000, 5.3419001E-02
17.42000, 0.3883380
17.45000, 0.6287560
17.48000, 0.9176100
17.51000, 9.5270999E-02
17.54000, 0.3084050
17.57000, 0.6025350
17.60000, 0.6676400
17.63000, 1.757863
17.66000, 0.2112930
17.69000, 2.423632
17.72000, 3.341523
17.75000, 3.908995
17.78000, 3.239269
17.81000, 1.497109
17.84000, 0.6290700
17.87000, 7.2958998E-02
17.90000, 0.6547520
17.93000, 0.5203990
17.96000, 0.2532950
17.99000, 0.5471220
18.02000, 0.9993400
18.05000, 1.569731
18.08000, 2.950543
18.11000, 6.306087
18.14000, 5.160405
18.17000, 5.461262
18.20000, 5.265446
18.23000, 2.628139
18.26000, 1.564906
18.29000, 2.444520
18.32000, 2.618123
18.35000, 3.145741
18.38000, 1.477450
18.41000, 0.6221900
18.44000, 0.6437170
18.47000, 0.7065050
18.50000, 2.191889
18.53000, 2.006031
18.56000, 4.699139
18.59000, 4.658754
18.62000, 4.721704
18.65000, 2.804288
18.68000, 0.8373080
18.71000, 1.484585
18.74000, 3.587487
18.77000, 7.446289
18.80000, 9.894255
18.83000, 9.443390
18.86000, 6.253181
18.89000, 3.556534
18.92000, 2.313271
18.95000, 3.380351
18.98000, 4.414444
19.01000, 4.195147
19.04000, 4.613311
19.07000, 5.200108
19.10000, 7.605232
19.13000, 10.58819
19.16000, 12.06605
19.19000, 13.88684
19.22000, 17.66918
19.25000, 18.74817
19.28000, 20.29621
19.31000, 23.10548
19.34000, 26.20070
19.37000, 32.42578
19.40000, 43.45872
19.43000, 60.77069
19.46000, 81.56813
19.49000, 110.1119
19.52000, 144.0851
19.55000, 183.2033
19.58000, 223.5607
19.61000, 264.2355
19.64000, 303.7649
19.67000, 338.6699
19.70000, 367.0503
19.73000, 388.9220
19.76000, 398.8180
19.79000, 388.5933
19.82000, 361.4134
19.85000, 327.9824
19.88000, 291.8351
19.91000, 245.4530
19.94000, 200.2936
19.97000, 158.4946
20.00000, 125.2968
20.03000, 96.23251
20.06000, 71.97472
20.09000, 56.14963
20.12000, 40.30692
20.15000, 32.05819
20.18000, 29.37346
20.21000, 27.24113
20.24000, 25.91310
20.27000, 22.82508
20.30000, 21.14058
20.33000, 21.16350
20.36000, 25.13076
20.39000, 32.84723
20.42000, 41.85357
20.45000, 51.91588
20.48000, 66.58479
20.51000, 89.26750
20.54000, 117.1801
20.57000, 149.4667
20.60000, 187.2054
20.63000, 223.3752
20.66000, 258.1363
20.69000, 293.7631
20.72000, 317.1056
20.75000, 330.5010
20.78000, 329.7139
20.81000, 318.1169
20.84000, 295.5497
20.87000, 269.7902
20.90000, 235.4410
20.93000, 197.3767
20.96000, 158.3510
20.99000, 121.5644
21.02000, 94.40805
21.05000, 75.33907
21.08000, 57.77151
21.11000, 42.79655
21.14000, 33.37534
21.17000, 26.47226
21.20000, 17.99741
21.23000, 12.85957
21.26000, 14.12013
21.29000, 13.64413
21.32000, 12.60879
21.35000, 11.74324
21.38000, 11.25090
21.41000, 11.48020
21.44000, 11.60395
21.47000, 11.14473
21.50000, 9.340937
21.53000, 12.79149
21.56000, 14.92414
21.59000, 15.72359
21.62000, 21.50964
21.65000, 26.02106
21.68000, 30.98963
21.71000, 36.34833
21.74000, 40.20041
21.77000, 42.23077
21.80000, 44.50255
21.83000, 43.00365
21.86000, 43.60566
21.89000, 40.58606
21.92000, 34.24652
21.95000, 27.17228
21.98000, 21.86171
22.01000, 16.49380
22.04000, 11.81066
22.07000, 8.770996
22.10000, 6.985979
22.13000, 3.521498
22.16000, 2.036613
22.19000, 0.8963170
22.22000, 1.350255
22.25000, 0.6500450
22.28000, 0.6736170
22.31000, 0.4601050
22.34000, 8.6474001E-02
22.37000, 2.979249
22.40000, 5.180548
22.43000, 4.038388
22.46000, 0.1586820
22.49000, 0.4126160
22.52000, 0.4904160
22.55000, 1.318030
22.58000, 0.5033450
22.61000, 1.496851
22.64000, 1.402838
22.67000, 0.4072110
22.70000, 0.9054100
22.73000, 0.8680880
22.76000, 0.8977150
22.79000, 0.1942530
22.82000, 5.3424001E-02
22.85000, 0.7205410
22.88000, 0.2491200
22.91000, 0.1503930
22.94000, 2.584272
22.97000, 2.037199
23.00000, 3.279557
23.03000, 4.246226
23.06000, 7.355412
23.09000, 11.15828
23.12000, 13.90085
23.15000, 19.36508
23.18000, 27.46196
23.21000, 39.12911
23.24000, 54.91267
23.27000, 72.05730
23.30000, 90.75582
23.33000, 114.3461
23.36000, 136.4889
23.39000, 152.5965
23.42000, 165.2321
23.45000, 173.8572
23.48000, 177.2403
23.51000, 177.3338
23.54000, 172.2921
23.57000, 161.2100
23.60000, 142.0975
23.63000, 122.4400
23.66000, 102.7511
23.69000, 81.84593
23.72000, 65.72598
23.75000, 53.46362
23.78000, 41.02772
23.81000, 32.29079
23.84000, 24.65323
23.87000, 20.52041
23.90000, 15.17887
23.93000, 12.53215
23.96000, 11.55055
23.99000, 9.695368
24.02000, 7.643399
24.05000, 9.113836
24.08000, 10.23521
24.11000, 12.00782
24.14000, 15.37833
24.17000, 17.20611
24.20000, 26.70239
24.23000, 25.10456
24.26000, 29.52358
24.29000, 30.04680
24.32000, 38.68040
24.35000, 51.41403
24.38000, 66.62422
24.41000, 81.87214
24.44000, 102.6568
24.47000, 133.0810
24.50000, 170.2421
24.53000, 204.7570
24.56000, 242.2321
24.59000, 273.3057
24.62000, 296.1455
24.65000, 308.3088
24.68000, 317.5606
24.71000, 319.8994
24.74000, 305.9645
24.77000, 283.2550
24.80000, 258.6871
24.83000, 233.8926
24.86000, 209.3789
24.89000, 187.2653
24.92000, 175.9571
24.95000, 170.3263
24.98000, 171.8119
25.01000, 190.1785
25.04000, 222.3448
25.07000, 270.4422
25.10000, 327.3706
25.13000, 392.7981
25.16000, 456.6942
25.19000, 523.9602
25.22000, 582.0764
25.25000, 630.4727
25.28000, 656.8345
25.31000, 666.8547
25.34000, 659.8344
25.37000, 634.8610
25.40000, 590.5751
25.43000, 534.1740
25.46000, 465.5209
25.49000, 404.4402
25.52000, 341.4246
25.55000, 280.0281
25.58000, 222.8497
25.61000, 170.8691
25.64000, 129.4428
25.67000, 98.89882
25.70000, 77.33193
25.73000, 59.79786
25.76000, 48.07735
25.79000, 39.98154
25.82000, 35.04605
25.85000, 31.21521
25.88000, 24.46808
25.91000, 19.84335
25.94000, 18.62494
25.97000, 20.21375
26.00000, 23.04685
26.03000, 24.74784
26.06000, 21.76324
26.09000, 18.91994
26.12000, 17.42839
26.15000, 14.35592
26.18000, 11.16957
26.21000, 12.91762
26.24000, 14.13705
26.27000, 11.93633
26.30000, 10.39788
26.33000, 10.58265
26.36000, 10.06952
26.39000, 9.456182
26.42000, 11.11503
26.45000, 12.01499
26.48000, 11.69134
26.51000, 10.94643
26.54000, 10.71779
26.57000, 9.557860
26.60000, 7.561466
26.63000, 7.550468
26.66000, 3.013614
26.69000, 2.604765
26.72000, 1.766028
26.75000, 1.6295001E-02
26.78000, 0.8663490
26.81000, 0.6097580
26.84000, 0.7323690
26.87000, 1.277424
26.90000, 1.245237
26.93000, 2.166125
26.96000, 3.711109
26.99000, 2.426146
27.02000, 0.5382850
27.05000, 0.6305050
27.08000, 1.728492
27.11000, 0.4072310
27.14000, 0.3928500
27.17000, 0.2160140
27.20000, 0.4558010
27.23000, 0.1299920
27.26000, 0.1709060
27.29000, 0.2835080
27.32000, 0.8418850
27.35000, 2.679156
27.38000, 1.355216
27.41000, 0.8322450
27.44000, 0.6260230
27.47000, 0.7293360
27.50000, 0.2227310
27.53000, 2.249736
27.56000, 2.099438
27.59000, 0.2112850
27.62000, 0.2858560
27.65000, 0.7484710
27.68000, 1.608500
27.71000, 0.4088390
27.74000, 0.6289210
27.77000, 1.167154
27.80000, 0.3800950
27.83000, 0.1093720
27.86000, 2.6319999E-02
27.89000, 0.2692480
27.92000, 0.2313130
27.95000, 0.4684590
27.98000, 2.466835
28.01000, 1.706813
28.04000, 1.146881
28.07000, 0.2481820
28.10000, 0.2541110
28.13000, 0.1026280
28.16000, 0.4785970
28.19000, 0.7311290
28.22000, 2.576665
28.25000, 2.754111
28.28000, 3.607437
28.31000, 0.5462860
28.34000, 0.6205740
28.37000, 3.213884
28.40000, 4.586419
28.43000, 7.080776
28.46000, 11.31607
28.49000, 12.46024
28.52000, 15.29322
28.55000, 22.53409
28.58000, 28.40883
28.61000, 37.48642
28.64000, 48.97787
28.67000, 60.13113
28.70000, 70.53725
28.73000, 80.10919
28.76000, 88.88004
28.79000, 96.35464
28.82000, 97.09312
28.85000, 98.39143
28.88000, 95.75958
28.91000, 85.92554
28.94000, 76.88538
28.97000, 64.72900
29.00000, 54.71947
29.03000, 49.16386
29.06000, 40.40700
29.09000, 33.76207
29.12000, 30.97986
29.15000, 27.49557
29.18000, 28.75513
29.21000, 33.71157
29.24000, 41.59371
29.27000, 52.89577
29.30000, 65.05067
29.33000, 76.48141
29.36000, 87.29900
29.39000, 94.62956
29.42000, 99.58357
29.45000, 99.75382
29.48000, 101.2744
29.51000, 102.0058
29.54000, 101.4163
29.57000, 96.98463
29.60000, 92.44570
29.63000, 81.85361
29.66000, 72.07465
29.69000, 61.03568
29.72000, 45.21486
29.75000, 36.70741
29.78000, 26.88301
29.81000, 17.69806
29.84000, 11.51782
29.87000, 10.33825
29.90000, 11.48703
29.93000, 8.056757
29.96000, 4.987578
29.99000, 2.969704
30.02000, 2.927261
30.05000, 2.654271
30.08000, 5.224890
30.11000, 10.77852
30.14000, 16.81704
30.17000, 19.67041
30.20000, 24.04270
30.23000, 26.17684
30.26000, 24.96988
30.29000, 22.87886
30.32000, 19.38672
30.35000, 14.03142
30.38000, 12.78238
30.41000, 10.18849
30.44000, 5.515143
30.47000, 3.590413
30.50000, 6.503525
30.53000, 7.626583
30.56000, 9.089527
30.59000, 7.633394
30.62000, 4.937131
30.65000, 0.1788450
30.68000, 0.1494170
30.71000, 0.5045220
30.74000, 3.9100000E-03
30.77000, 0.2405540
30.80000, 0.4275380
30.83000, 0.6164860
30.86000, 0.6685370
30.89000, 0.1368780
30.92000, 0.6600740
30.95000, 0.5393950
30.98000, 0.8045500
31.01000, 0.1056070
31.04000, 3.234688
31.07000, 3.207264
31.10000, 0.9537050
31.13000, 4.0240001E-02
31.16000, 0.8372590
31.19000, 0.1446060
31.22000, 0.3494440
31.25000, 0.6980900
31.28000, 8.161347
31.31000, 13.87496
31.34000, 21.17018
31.37000, 29.39504
31.40000, 34.31254
31.43000, 52.95265
31.46000, 48.33765
31.49000, 60.98875
31.52000, 46.51794
31.55000, 50.62359
31.58000, 54.30025
31.61000, 59.01133
31.64000, 59.63094
31.67000, 58.52736
31.70000, 56.13166
31.73000, 52.91183
31.76000, 49.32011
31.79000, 42.98075
31.82000, 36.91089
31.85000, 29.38302
31.88000, 23.14421
31.91000, 17.79448
31.94000, 11.16121
31.97000, 8.811519
32.00000, 6.322857
32.03000, 8.245205
32.06000, 12.43164
32.09000, 13.58410
32.12000, 15.79359
32.15000, 21.37818
32.18000, 25.37779
32.21000, 28.68047
32.24000, 32.97819
32.27000, 39.67299
32.30000, 48.62182
32.33000, 54.81676
32.36000, 56.10373
32.39000, 56.65179
32.42000, 51.14693
32.45000, 49.55312
32.48000, 51.80338
32.51000, 55.65063
32.54000, 57.83307
32.57000, 63.13557
32.60000, 66.08511
32.63000, 73.60078
32.66000, 83.91846
32.69000, 95.64731
32.72000, 112.4812
32.75000, 129.8712
32.78000, 153.6123
32.81000, 186.1465
32.84000, 219.5308
32.87000, 247.6290
32.90000, 268.5996
32.93000, 284.2471
32.96000, 294.1393
32.99000, 302.6465
33.02000, 296.9685
33.05000, 286.7714
33.08000, 275.2835
33.11000, 265.9125
33.14000, 255.4849
33.17000, 237.7072
33.20000, 213.7579
33.23000, 185.8062
33.26000, 155.6570
33.29000, 126.3118
33.32000, 104.9718
33.35000, 82.84869
33.38000, 66.48383
33.41000, 55.61127
33.44000, 47.36259
33.47000, 35.92506
33.50000, 32.06453
33.53000, 28.79267
33.56000, 43.95525
33.59000, 32.36931
33.62000, 37.96671
33.65000, 22.88461
33.68000, 23.99987
33.71000, 23.90195
33.74000, 22.41918
33.77000, 20.85939
33.80000, 21.33443
33.83000, 20.08887
33.86000, 19.44342
33.89000, 19.42773
33.92000, 17.74501
33.95000, 18.02677
33.98000, 16.84811
34.01000, 14.20237
34.04000, 11.56534
34.07000, 9.225808
34.10000, 6.908852
34.13000, 3.068069
34.16000, 1.359582
34.19000, 4.072160
34.22000, 6.533228
34.25000, 7.426030
34.28000, 9.072696
34.31000, 13.09950
34.34000, 14.62228
34.37000, 12.59822
34.40000, 10.06070
34.43000, 7.627889
34.46000, 6.757657
34.49000, 2.923587
34.52000, 0.8298950
34.55000, 0.1387240
34.58000, 1.567586
34.61000, 0.4726970
34.64000, 0.6039860
34.67000, 1.981528
34.70000, 0.1555640
34.73000, 0.4474590
34.76000, 1.094467
34.79000, 0.5736390
34.82000, 1.143378
34.85000, 7.5473003E-02
34.88000, 0.3172270
34.91000, 4.4093002E-02
34.94000, 0.4009590
34.97000, 0.5048730
35.00000, 7.3615998E-02
35.03000, 0.2459710
35.06000, 0.2504430
35.09000, 1.451745
35.12000, 1.463719
35.15000, 0.4443840
35.18000, 1.131057
35.21000, 0.2591420
35.24000, 1.108657
35.27000, 0.8432090
35.30000, 4.477586
35.33000, 4.584619
35.36000, 4.068139
35.39000, 9.152868
35.42000, 16.33979
35.45000, 28.29595
35.48000, 44.76937
35.51000, 60.13926
35.54000, 72.42384
35.57000, 84.06257
35.60000, 94.30558
35.63000, 102.5128
35.66000, 111.9563
35.69000, 120.1451
35.72000, 122.9151
35.75000, 122.9742
35.78000, 123.2567
35.81000, 116.2393
35.84000, 107.7923
35.87000, 99.84937
35.90000, 92.40274
35.93000, 85.02733
35.96000, 76.51820
35.99000, 64.29025
36.02000, 49.90957
36.05000, 41.69508
36.08000, 35.77888
36.11000, 29.65482
36.14000, 26.38128
36.17000, 21.72352
36.20000, 22.97016
36.23000, 23.98506
36.26000, 24.88614
36.29000, 24.61949
36.32000, 21.45509
36.35000, 21.28084
36.38000, 23.69484
36.41000, 26.07903
36.44000, 30.76543
36.47000, 35.02008
36.50000, 40.53496
36.53000, 43.05199
36.56000, 45.11525
36.59000, 41.09074
36.62000, 34.89648
36.65000, 28.38928
36.68000, 23.39243
36.71000, 19.12794
36.74000, 16.44329
36.77000, 13.23801
36.80000, 11.91593
36.83000, 11.64500
36.86000, 8.744332
36.89000, 5.812846
36.92000, 4.417534
36.95000, 1.750440
36.98000, 0.8845110
37.01000, 3.599282
37.04000, 5.918227
37.07000, 5.078396
37.10000, 1.386631
37.13000, 0.3898000
37.16000, 0.1708960
37.19000, 0.2401590
37.22000, 0.6263640
37.25000, 3.6791999E-02
37.28000, 0.6584160
37.31000, 2.242321
37.34000, 1.669170
37.37000, 0.1894190
37.40000, 0.1804790
37.43000, 0.3864710
37.46000, 1.259549
37.49000, 5.737643
37.52000, 10.15670
37.55000, 6.069809
37.58000, 3.922600
37.61000, 2.783106
37.64000, 2.656253
37.67000, 4.000992
37.70000, 6.304463
37.73000, 11.53562
37.76000, 16.36697
37.79000, 21.26019
37.82000, 28.48567
37.85000, 33.55300
37.88000, 41.81190
37.91000, 50.45410
37.94000, 58.52422
37.97000, 64.27675
38.00000, 72.05334
38.03000, 77.63558
38.06000, 84.55902
38.09000, 91.54165
38.12000, 87.11852
38.15000, 79.44717
38.18000, 78.85597
38.21000, 80.18201
38.24000, 73.47252
38.27000, 69.57304
38.30000, 63.06668
38.33000, 55.02936
38.36000, 52.66072
38.39000, 49.50308
38.42000, 42.68719
38.45000, 39.46840
38.48000, 39.66497
38.51000, 40.16459
38.54000, 43.08022
38.57000, 49.94090
38.60000, 57.55752
38.63000, 61.63008
38.66000, 64.13930
38.69000, 69.71648
38.72000, 80.03928
38.75000, 92.18391
38.78000, 97.65224
38.81000, 96.98071
38.84000, 94.45885
38.87000, 92.23169
38.90000, 101.6747
38.93000, 108.5139
38.96000, 117.1923
38.99000, 130.1867
39.02000, 142.6019
39.05000, 149.2527
39.08000, 155.5182
39.11000, 163.2478
39.14000, 166.6750
39.17000, 166.0378
39.20000, 167.4366
39.23000, 164.7572
39.26000, 157.3418
39.29000, 150.4873
39.32000, 147.8835
39.35000, 146.3897
39.38000, 140.6924
39.41000, 134.4402
39.44000, 120.0949
39.47000, 104.5535
39.50000, 95.12794
39.53000, 86.13229
39.56000, 73.47441
39.59000, 62.72043
39.62000, 52.81329
39.65000, 44.96899
39.68000, 39.20254
39.71000, 36.64690
39.74000, 33.03815
39.77000, 26.82919
39.80000, 23.00114
39.83000, 20.66090
39.86000, 19.95144
39.89000, 18.48981
39.92000, 18.07506
39.95000, 17.51112
39.98000, 17.27899
40.01000, 16.09369
40.04000, 16.39923
40.07000, 11.51758
40.10000, 6.993745
40.13000, 9.996692
40.16000, 12.95053
40.19000, 15.79414
40.22000, 16.95153
40.25000, 13.86075
40.28000, 8.990852
40.31000, 9.886729
40.34000, 9.592462
40.37000, 7.542931
40.40000, 6.748259
40.43000, 9.061403
40.46000, 8.249314
40.49000, 6.989086
40.52000, 9.482648
40.55000, 8.815015
40.58000, 4.410959
40.61000, 3.164991
40.64000, 1.129795
40.67000, 5.0558001E-02
40.70000, 0.6162910
40.73000, 0.6817820
40.76000, 0.2803030
40.79000, 0.6078370
40.82000, 0.1743470
40.85000, 0.9527120
40.88000, 0.8479650
40.91000, 1.8959001E-02
40.94000, 0.8301170
40.97000, 2.860581
41.00000, 5.661910
41.03000, 4.111974
41.06000, 2.260916
41.09000, 0.9064440
41.12000, 0.5826190
41.15000, 0.2870100
41.18000, 0.8064920
41.21000, 6.9962002E-02
41.24000, 4.0640000E-02
41.27000, 0.7948140
41.30000, 0.3784620
41.33000, 0.1984050
41.36000, 0.3739840
41.39000, 1.032067
41.42000, 0.6098990
41.45000, 0.8692560
41.48000, 0.6892920
41.51000, 3.147450
41.54000, 2.187288
41.57000, 0.1221780
41.60000, 0.2772980
41.63000, 0.3727680
41.66000, 0.1828710
41.69000, 0.5706890
41.72000, 2.083488
41.75000, 2.556310
41.78000, 1.124951
41.81000, 0.5573740
41.84000, 9.0685003E-02
41.87000, 0.4631250
41.90000, 1.976221
41.93000, 1.098849
41.96000, 2.598015
41.99000, 5.792273
42.02000, 7.195800
42.05000, 8.176169
42.08000, 11.59447
42.11000, 14.17015
42.14000, 13.63052
42.17000, 17.84689
42.20000, 13.36576
42.23000, 12.97603
42.26000, 14.59972
42.29000, 16.85914
42.32000, 16.98438
42.35000, 17.04755
42.38000, 16.84837
42.41000, 19.19771
42.44000, 14.93334
42.47000, 12.47319
42.50000, 12.95768
42.53000, 15.31168
42.56000, 18.76941
42.59000, 18.40187
42.62000, 13.12343
42.65000, 11.56308
42.68000, 11.70999
42.71000, 12.09575
42.74000, 12.50572
42.77000, 10.77730
42.80000, 11.83265
42.83000, 11.64759
42.86000, 9.644272
42.89000, 11.21866
42.92000, 14.97869
42.95000, 13.90242
42.98000, 13.17441
43.01000, 11.87548
43.04000, 9.344327
43.07000, 8.894709
43.10000, 5.940948
43.13000, 7.043786
43.16000, 4.438366
43.19000, 3.492603
43.22000, 2.543471
43.25000, 4.175085
43.28000, 7.243429
43.31000, 5.682467
43.34000, 9.354192
43.37000, 14.28166
43.40000, 17.01938
43.43000, 19.76281
43.46000, 20.54397
43.49000, 21.92787
43.52000, 27.47848
43.55000, 36.22382
43.58000, 41.40083
43.61000, 44.16963
43.64000, 44.47752
43.67000, 43.85855
43.70000, 43.23845
43.73000, 45.34107
43.76000, 46.25985
43.79000, 46.81480
43.82000, 48.12492
43.85000, 43.64619
43.88000, 37.50332
43.91000, 35.82724
43.94000, 32.84890
43.97000, 32.47072
44.00000, 34.89991
44.03000, 35.59434
44.06000, 34.67520
44.09000, 45.75348
44.12000, 37.25333
44.15000, 52.13087
44.18000, 27.86924
44.21000, 27.23887
44.24000, 26.66972
44.27000, 25.67885
44.30000, 25.33598
44.33000, 28.66072
44.36000, 31.24156
44.39000, 27.92291
44.42000, 30.31047
44.45000, 36.36152
44.48000, 47.13728
44.51000, 61.14904
44.54000, 72.73640
44.57000, 83.42585
44.60000, 93.53534
44.63000, 103.7548
44.66000, 112.0969
44.69000, 116.8904
44.72000, 118.8178
44.75000, 123.2612
44.78000, 122.4773
44.81000, 126.7525
44.84000, 124.4421
44.87000, 123.8411
44.90000, 118.4033
44.93000, 109.7328
44.96000, 103.2925
44.99000, 96.01079
45.02000, 91.34187
45.05000, 84.52509
45.08000, 76.03963
45.11000, 71.03620
45.14000, 64.32497
45.17000, 56.22820
45.20000, 52.29731
45.23000, 46.61278
45.26000, 44.00284
45.29000, 38.23394
45.32000, 28.58713
45.35000, 20.89654
45.38000, 20.62848
45.41000, 21.57526
45.44000, 21.13189
45.47000, 23.58033
45.50000, 23.41323
45.53000, 18.95872
45.56000, 15.29105
45.59000, 11.14755
45.62000, 8.450274
45.65000, 7.865273
45.68000, 6.794415
45.71000, 8.064014
45.74000, 9.371197
45.77000, 7.732071
45.80000, 4.094636
45.83000, 3.281774
45.86000, 0.3185870
45.89000, 0.3560430
45.92000, 1.880561
45.95000, 3.547811
45.98000, 1.454750
46.01000, 1.631812
46.04000, 0.6337080
46.07000, 0.8857410
46.10000, 1.047423
46.13000, 2.128048
46.16000, 0.5107670
46.19000, 1.279858
46.22000, 0.4295990
46.25000, 0.7453720
46.28000, 0.9650320
46.31000, 1.976542
46.34000, 2.490151
46.37000, 0.7590360
46.40000, 1.065158
46.43000, 0.7415510
46.46000, 2.707159
46.49000, 1.507059
46.52000, 1.169583
46.55000, 1.561205
46.58000, 0.1314230
46.61000, 4.804449
46.64000, 8.250769
46.67000, 10.52439
46.70000, 13.68828
46.73000, 18.57643
46.76000, 17.96691
46.79000, 20.16866
46.82000, 24.04173
46.85000, 21.01212
46.88000, 18.78480
46.91000, 22.97287
46.94000, 22.30215
46.97000, 21.17467
47.00000, 26.20770
47.03000, 25.59103
47.06000, 23.73973
47.09000, 22.01483
47.12000, 29.36219
47.15000, 32.76693
47.18000, 36.19815
47.21000, 37.02808
47.24000, 34.43622
47.27000, 30.29279
47.30000, 31.24636
47.33000, 34.97134
47.36000, 38.37359
47.39000, 44.00756
47.42000, 45.94620
47.45000, 45.89661
47.48000, 48.55630
47.51000, 48.40138
47.54000, 43.59817
47.57000, 34.85241
47.60000, 32.57096
47.63000, 32.63455
47.66000, 31.88147
47.69000, 29.81732
47.72000, 26.36929
47.75000, 22.88534
47.78000, 25.68904
47.81000, 27.28120
47.84000, 25.89497
47.87000, 27.32511
47.90000, 25.66899
47.93000, 18.85081
47.96000, 9.687099
47.99000, 6.212450
48.02000, 2.477006
48.05000, 0.8549920
48.08000, 0.7274290
48.11000, 1.577041
48.14000, 3.193742
48.17000, 3.626832
48.20000, 6.557151
48.23000, 9.570852
48.26000, 8.210884
48.29000, 9.155622
48.32000, 7.506939
48.35000, 5.805989
48.38000, 4.411864
48.41000, 5.432528
48.44000, 6.861999
48.47000, 5.335917
48.50000, 0.6825880
48.53000, 1.497795
48.56000, 5.093970
48.59000, 7.135195
48.62000, 11.94775
48.65000, 14.81220
48.68000, 12.20550
48.71000, 8.937681
48.74000, 8.580133
48.77000, 8.799311
48.80000, 12.90096
48.83000, 13.21922
48.86000, 16.75627
48.89000, 19.47772
48.92000, 22.00650
48.95000, 24.81667
48.98000, 22.51671
49.01000, 17.58199
49.04000, 17.19060
49.07000, 19.31324
49.10000, 20.12175
49.13000, 18.19400
49.16000, 20.33059
49.19000, 23.93456
49.22000, 28.26089
49.25000, 28.18656
49.28000, 27.31659
49.31000, 32.60527
49.34000, 31.88587
49.37000, 32.51896
49.40000, 32.39124
49.43000, 31.11528
49.46000, 33.08150
49.49000, 33.67496
49.52000, 32.72434
49.55000, 35.92229
49.58000, 40.77290
49.61000, 45.64421
49.64000, 47.30849
49.67000, 44.72632
49.70000, 45.01481
49.73000, 44.07078
49.76000, 45.96823
49.79000, 43.59871
49.82000, 36.75336
49.85000, 32.38595
49.88000, 26.02085
49.91000, 26.71587
49.94000, 30.61738
49.97000, 27.95338
50.00000, 28.54994
50.03000, 33.55807
50.06000, 29.70867
50.09000, 25.18798
50.12000, 25.60984
50.15000, 22.52262
50.18000, 20.53907
50.21000, 22.44204
50.24000, 21.12660
50.27000, 16.39565
50.30000, 8.818295
50.33000, 4.912432
50.36000, 8.048133
50.39000, 9.115599
50.42000, 8.215876
50.45000, 5.226126
50.48000, 5.477884
50.51000, 1.173195
50.54000, 0.7611860
50.57000, 1.284831
50.60000, 9.956347
50.63000, 11.91240
50.66000, 6.196005
50.69000, 3.632209
50.72000, 3.271911
50.75000, 0.1171850
50.78000, 0.8846590
50.81000, 1.076895
50.84000, 0.3632090
50.87000, 1.071393
50.90000, 0.8609640
50.93000, 0.2343950
50.96000, 8.2823001E-02
50.99000, 0.2256010
51.02000, 0.2478780
51.05000, 3.514401
51.08000, 2.910181
51.11000, 0.5523830
51.14000, 0.7005950
51.17000, 0.3549420
51.20000, 0.8000340
51.23000, 0.9394790
51.26000, 0.4738060
51.29000, 0.2880090
51.32000, 0.4123490
51.35000, 7.3289998E-02
51.38000, 0.3799660
51.41000, 0.1263310
51.44000, 0.6420070
51.47000, 0.1469040
51.50000, 0.4222590
51.53000, 6.914909
51.56000, 11.02261
51.59000, 14.23979
51.62000, 16.99456
51.65000, 15.06885
51.68000, 10.57061
51.71000, 16.82290
51.74000, 20.98572
51.77000, 15.93601
51.80000, 14.00681
51.83000, 13.06910
51.86000, 8.280885
51.89000, 3.913226
51.92000, 1.370007
51.95000, 1.962300
51.98000, 3.707098
52.01000, 2.761321
52.04000, 4.319089
52.07000, 4.836333
52.10000, 3.824554
52.13000, 1.117741
52.16000, 0.8991380
52.19000, 2.637267
52.22000, 2.738164
52.25000, 4.159843
52.28000, 2.338268
52.31000, 3.316247
52.34000, 3.638579
52.37000, 6.615226
52.40000, 2.440593
52.43000, 6.783073
52.46000, 12.41301
52.49000, 14.26479
52.52000, 10.54115
52.55000, 6.033581
52.58000, 2.491122
52.61000, 0.7587820
52.64000, 0.2620820
52.67000, 2.283880
52.70000, 5.262718
52.73000, 6.503891
52.76000, 2.893263
52.79000, 3.948955
52.82000, 2.157362
52.85000, 0.4201770
52.88000, 0.5791360
52.91000, 0.2235570
52.94000, 5.5096999E-02
52.97000, 0.4218730
53.00000, 0.3520250
53.03000, 3.144878
53.06000, 5.442257
53.09000, 5.478182
53.12000, 6.240738
53.15000, 4.800261
53.18000, 5.884294
53.21000, 6.879376
53.24000, 8.175912
53.27000, 7.629207
53.30000, 5.356039
53.33000, 6.245138
53.36000, 7.931546
53.39000, 10.03477
53.42000, 11.82445
53.45000, 17.28742
53.48000, 17.04621
53.51000, 18.57227
53.54000, 22.78163
53.57000, 23.03827
53.60000, 24.05480
53.63000, 19.98460
53.66000, 12.23640
53.69000, 5.859701
53.72000, 1.601749
53.75000, 7.030445
53.78000, 8.242508
53.81000, 7.822829
53.84000, 10.71840
53.87000, 10.88424
53.90000, 9.994311
53.93000, 12.76762
53.96000, 13.21593
53.99000, 13.77322
54.02000, 14.72010
54.05000, 15.32991
54.08000, 14.60072
54.11000, 9.710148
54.14000, 10.72634
54.17000, 18.11679
54.20000, 26.77335
54.23000, 31.83414
54.26000, 37.02808
54.29000, 39.91916
54.32000, 38.45736
54.35000, 44.21472
54.38000, 46.00081
54.41000, 50.72412
54.44000, 50.87062
54.47000, 52.17762
54.50000, 50.98373
54.53000, 50.31203
54.56000, 52.84020
54.59000, 53.66518
54.62000, 50.72695
54.65000, 52.65897
54.68000, 50.93011
54.71000, 47.56005
54.74000, 44.22410
54.77000, 46.21096
54.80000, 47.03624
54.83000, 42.17690
54.86000, 35.15229
54.89000, 32.05064
54.92000, 32.42046
54.95000, 26.14422
54.98000, 25.13406
55.01000, 26.52181
55.04000, 15.63419
55.07000, 12.93713
55.10000, 7.873119
55.13000, 5.195783
55.16000, 8.550621
55.19000, 9.079152
55.22000, 7.660938
55.25000, 9.548837
55.28000, 4.700151
55.31000, 9.643592
55.34000, 10.45030
55.37000, 9.033194
55.40000, 5.768319
55.43000, 6.376024
55.46000, 4.580186
55.49000, 5.385995
55.52000, 4.402981
55.55000, 4.154209
55.58000, 3.521614
55.61000, 3.140208
55.64000, 6.608010
55.67000, 1.182072
55.70000, 3.033117
55.73000, 0.1888460
55.76000, 2.296373
55.79000, 0.6322070
55.82000, 0.5927930
55.85000, 0.7860750
55.88000, 0.8204760
55.91000, 0.3021230
55.94000, 0.5265750
55.97000, 0.1872480
56.00000, 3.805717
56.03000, 0.7347460
56.06000, 0.9792660
56.09000, 4.661929
56.12000, 1.439475
56.15000, 0.7397240
56.18000, 0.2641260
56.21000, 2.654161
56.24000, 3.893965
56.27000, 7.807309
56.30000, 10.39188
56.33000, 11.75256
56.36000, 16.22043
56.39000, 13.66256
56.42000, 12.42159
56.45000, 8.276787
56.48000, 4.109829
56.51000, 0.3205420
56.54000, 1.472959
56.57000, 3.589735
56.60000, 2.729174
56.63000, 8.105991
56.66000, 17.99690
56.69000, 24.17893
56.72000, 21.19710
56.75000, 17.80935
56.78000, 15.46406
56.81000, 12.25402
56.84000, 9.825063
56.87000, 4.839161
56.90000, 4.596354
56.93000, 5.459932
56.96000, 12.92969
56.99000, 14.19969
57.02000, 13.41074
57.05000, 13.85901
57.08000, 7.796358
57.11000, 1.922692
57.14000, 2.992824
57.17000, 5.272368
57.20000, 6.229854
57.23000, 0.5116280
57.26000, 1.041646
57.29000, 0.1399090
57.32000, 0.5436300
57.35000, 1.931538
57.38000, 1.863913
57.41000, 1.917239
57.44000, 1.279537
57.47000, 1.503893
57.50000, 0.2482730
57.53000, 0.7499060
57.56000, 0.6369490
57.59000, 0.1717350
57.62000, 0.8436160
57.65000, 0.9330510
57.68000, 8.1125997E-02
57.71000, 0.8044980
57.74000, 1.514432
57.77000, 3.596560
57.80000, 8.893645
57.83000, 17.49260
57.86000, 22.91545
57.89000, 24.40421
57.92000, 22.97796
57.95000, 18.60868
57.98000, 19.05391
58.01000, 20.57259
58.04000, 23.74658
58.07000, 20.05665
58.10000, 18.74822
58.13000, 16.80423
58.16000, 17.40287
58.19000, 14.59998
58.22000, 10.76229
58.25000, 9.805646
58.28000, 10.86400
58.31000, 13.91488
58.34000, 13.87051
58.37000, 12.22724
58.40000, 16.06384
58.43000, 15.54644
58.46000, 12.36689
58.49000, 12.16041
58.52000, 16.08648
58.55000, 25.83109
58.58000, 31.38712
58.61000, 32.58355
58.64000, 35.53362
58.67000, 39.57928
58.70000, 43.50103
58.73000, 44.28182
58.76000, 49.77919
58.79000, 56.46609
58.82000, 55.56800
58.85000, 58.00701
58.88000, 52.22612
58.91000, 47.13435
58.94000, 47.88563
58.97000, 42.50707
59.00000, 41.22460
59.03000, 47.57286
59.06000, 48.79660
59.09000, 53.18944
59.12000, 55.52346
59.15000, 47.65951
59.18000, 44.32873
59.21000, 45.33604
59.24000, 37.59947
59.27000, 41.84998
59.30000, 40.58762
59.33000, 41.30761
59.36000, 40.56341
59.39000, 35.33305
59.42000, 25.68641
59.45000, 18.12364
59.48000, 17.70785
59.51000, 18.04719
59.54000, 10.54769
59.57000, 5.480341
59.60000, 4.774753
59.63000, 8.189253
59.66000, 7.340440
59.69000, 7.312543
59.72000, 14.70921
59.75000, 12.74419
59.78000, 14.98958
59.81000, 18.37617
59.84000, 11.95958
59.87000, 14.43810
59.90000, 17.57391
59.93000, 18.97387
59.96000, 15.70955
59.99000, 12.04620
60.02000, 6.081392
60.05000, 1.648856
60.08000, 3.677722
60.11000, 6.659214
60.14000, 6.493007
60.17000, 2.222973
60.20000, 6.534373
60.23000, 4.074705
60.26000, 3.574017
60.29000, 12.46214
60.32000, 17.40024
60.35000, 17.83177
60.38000, 18.17743
60.41000, 15.89439
60.44000, 12.99896
60.47000, 12.52133
60.50000, 11.85790
60.53000, 13.07807
60.56000, 15.97008
60.59000, 15.39990
60.62000, 15.78154
60.65000, 10.23627
60.68000, 6.902868
60.71000, 9.4627999E-02
60.74000, 0.1251670
60.77000, 0.3394470
60.80000, 2.259500
60.83000, 2.715052
60.86000, 4.549591
60.89000, 9.607515
60.92000, 7.798933
60.95000, 9.613400
60.98000, 15.63361
61.01000, 13.79075
61.04000, 10.52992
61.07000, 2.901417
61.10000, 0.1879950
61.13000, 0.2220230
61.16000, 0.9901490
61.19000, 0.5597720
61.22000, 0.1223970
61.25000, 8.332912
61.28000, 11.79126
61.31000, 15.66789
61.34000, 20.09486
61.37000, 16.83690
61.40000, 13.57051
61.43000, 5.189287
61.46000, 2.000943
61.49000, 6.124071
61.52000, 5.029699
61.55000, 9.382414
61.58000, 8.910446
61.61000, 12.32674
61.64000, 14.70322
61.67000, 9.821953
61.70000, 8.133936
61.73000, 8.025492
61.76000, 7.664288
61.79000, 5.528025
61.82000, 4.593039
61.85000, 1.067740
61.88000, 0.8075820
61.91000, 7.5354002E-02
61.94000, 1.1222000E-02
61.97000, 0.9393270
62.00000, 0.3699460
62.03000, 0.1554710
62.06000, 0.6757970
62.09000, 5.138702
62.12000, 8.570424
62.15000, 6.104027
62.18000, 3.414389
62.21000, 1.219628
62.24000, 0.5214500
62.27000, 0.6219780
62.30000, 1.733536
62.33000, 0.7026160
62.36000, 3.5089999E-03
62.39000, 9.702377
62.42000, 12.19552
62.45000, 8.625653
62.48000, 11.16614
62.51000, 10.05196
62.54000, 8.834088
62.57000, 2.709777
62.60000, 0.2270860
62.63000, 3.150209
62.66000, 5.936015
62.69000, 7.843414
62.72000, 4.881495
62.75000, 5.364357
62.78000, 12.24997
62.81000, 16.42378
62.84000, 11.24509
62.87000, 8.000479
62.90000, 9.465232
62.93000, 11.63997
62.96000, 12.66410
62.99000, 15.08587
63.02000, 14.73633
63.05000, 18.81490
63.08000, 21.98342
63.11000, 22.09765
63.14000, 20.83332
63.17000, 16.00632
63.20000, 8.420676
63.23000, 3.401641
63.26000, 9.622397
63.29000, 16.42087
63.32000, 15.11680
63.35000, 17.50826
63.38000, 17.82607
63.41000, 13.96820
63.44000, 12.88374
63.47000, 12.44090
63.50000, 11.04477
63.53000, 10.25072
63.56000, 7.807940
63.59000, 9.720971
63.62000, 14.41143
63.65000, 17.24598
63.68000, 14.99522
63.71000, 11.90757
63.74000, 12.13332
63.77000, 8.095526
63.80000, 8.835358
63.83000, 2.589254
63.86000, 6.942897
63.89000, 6.362802
63.92000, 9.5980003E-02
63.95000, 2.549097
63.98000, 2.1124000E-02
64.01000, 2.776127
64.04000, 0.4400090
64.07000, 6.0043000E-02
64.10000, 0.4059260
64.13000, 0.4978440
64.16000, 1.051035
64.19000, 6.0095001E-02
64.22000, 0.2622650
64.25000, 1.579284
64.28000, 0.2111770
64.31000, 4.915875
64.34000, 3.615858
64.37000, 5.036262
64.40000, 4.644002
64.43000, 6.889185
64.46000, 5.765695
64.49000, 5.892523
64.52000, 0.9901520
64.55000, 1.917418
64.58000, 2.632255
64.61000, 3.1141000E-02
64.64000, 0.9413970
64.67000, 0.1944580
64.70000, 1.264138
64.73000, 0.9944670
64.76000, 2.959462
64.79000, 0.9877950
64.82000, 0.5453490
64.85000, 2.452903
64.88000, 7.441737
64.91000, 6.789510
64.94000, 9.617272
64.97000, 15.18803
65.00000, 16.40397
65.03000, 7.805166
65.06000, 0.3299820
65.09000, 0.0000000E+00
##END=



