##NAMES=Pseudomalachite
##RRUFFID=R050264
##IDEAL CHEMISTRY=Cu^2+^_5_(P^5+^O_4_)_2_(OH)_4_
##LOCALITY=Cerro Morita, 27 km southwest of Agua Prieta, Sonora, Mexico
##OWNER=RRUFF
##SOURCE=Marcus Origlieri
##DESCRIPTION=Blue powdery crust
##DIFFRACTION SAMPLE DESCRIPTION=Powder, using Mo radiation
##STATUS=The identification of this mineral has been confirmed by X-ray diffraction and chemical analysis
##URL=rruff.info/R050264
##MEASURED CHEMISTRY=(Cu_4.91_Al_0.04_[box]_0.03_Ca_0.02_)_Σ=5_((P_1.98_S_0.02_)_Σ=1_O_4_)_2_(OH)_4_ ; = light phase
6.440000, 0.0000000E+00
6.460000, 5.211200
6.480000, 8.005011
6.500000, 8.957415
6.520000, 5.765260
6.540000, 0.2590190
6.560000, 0.2709320
6.580000, 1.8873001E-02
6.600000, 5.6302000E-02
6.620000, 5.364150
6.640000, 12.40579
6.660000, 13.36145
6.680000, 14.02697
6.700000, 18.67058
6.720000, 19.68937
6.740000, 20.29664
6.760000, 20.16236
6.780000, 22.25428
6.800000, 27.39214
6.820000, 30.37012
6.840000, 36.43285
6.860000, 43.35561
6.880000, 42.10762
6.900000, 42.59267
6.920000, 51.85493
6.940000, 63.25079
6.960000, 75.41697
6.980000, 89.01503
7.000000, 105.6835
7.020000, 126.3004
7.040000, 140.7656
7.060000, 147.7367
7.080000, 151.5676
7.100000, 156.0769
7.120000, 160.0303
7.140000, 164.9666
7.160000, 169.0055
7.180000, 166.3614
7.200000, 157.3224
7.220000, 151.7220
7.240000, 149.0222
7.260000, 142.5235
7.280000, 134.6378
7.300000, 121.7480
7.320000, 105.9826
7.340000, 87.39936
7.360000, 68.09806
7.380000, 54.43304
7.400000, 41.65579
7.420000, 30.84055
7.440000, 23.80222
7.460000, 17.70706
7.480000, 11.69633
7.500000, 7.550539
7.520000, 8.772979
7.540000, 9.299187
7.560000, 12.44947
7.580000, 14.49719
7.600000, 11.24245
7.620000, 6.075324
7.640000, 3.231245
7.660000, 1.638112
7.680000, 0.8109810
7.700000, 1.452641
7.720000, 0.8769470
7.740000, 0.5586270
7.760000, 0.1416180
7.780000, 0.1987530
7.800000, 0.6855770
7.820000, 0.4813730
7.840000, 0.6538930
7.860000, 0.2596320
7.880000, 0.3524300
7.900000, 1.706428
7.920000, 0.9052010
7.940000, 0.3739110
7.960000, 0.6439820
7.980000, 0.7743980
8.000000, 0.7724760
8.020000, 0.4567430
8.040000, 3.490507
8.060000, 2.951019
8.080000, 3.634954
8.100000, 1.987472
8.120000, 1.811720
8.140000, 4.670944
8.160000, 3.177242
8.180000, 1.651246
8.200000, 6.337855
8.220000, 10.45650
8.240000, 13.86320
8.260000, 23.59693
8.280000, 33.05373
8.300000, 38.58486
8.320000, 48.18909
8.340000, 57.04559
8.360000, 70.10223
8.380000, 77.76158
8.400000, 90.57613
8.420000, 104.4731
8.440000, 116.5398
8.460000, 124.6573
8.480000, 130.1405
8.500000, 128.7746
8.520000, 124.1178
8.540000, 119.6900
8.560000, 116.1386
8.580000, 110.0985
8.600000, 106.1727
8.620000, 100.3057
8.640000, 93.38594
8.660000, 86.97372
8.680000, 79.64123
8.700000, 74.72446
8.720000, 73.31272
8.740000, 74.41326
8.760000, 80.61279
8.780000, 97.91687
8.800000, 115.6630
8.820000, 151.0391
8.840000, 201.1570
8.860000, 261.1203
8.880000, 329.0817
8.900000, 414.1364
8.920000, 512.4380
8.940000, 621.2696
8.960000, 734.6481
8.980000, 820.0461
9.000000, 914.6570
9.020000, 991.9195
9.040000, 1065.504
9.060000, 1119.330
9.080000, 1147.998
9.100000, 1158.276
9.120000, 1146.666
9.140000, 1094.646
9.160000, 1033.927
9.180000, 941.0994
9.200000, 848.1913
9.220000, 746.5015
9.240000, 640.7707
9.260000, 539.8284
9.280000, 440.9988
9.300000, 359.6879
9.320000, 290.1306
9.340000, 239.9446
9.360000, 196.8117
9.380000, 162.8332
9.400000, 138.4612
9.420000, 126.3998
9.440000, 118.9331
9.460000, 114.6044
9.480000, 116.3162
9.500000, 118.1893
9.520000, 116.7977
9.540000, 116.6762
9.560000, 112.6019
9.580000, 105.8464
9.600000, 98.81647
9.620000, 94.02913
9.640000, 88.14783
9.660000, 83.03620
9.680000, 73.59093
9.700000, 66.26716
9.720000, 55.18077
9.740000, 44.42376
9.760000, 30.57585
9.780000, 19.28192
9.800000, 11.97691
9.820000, 5.510954
9.840000, 1.948899
9.860000, 0.7620230
9.880000, 0.9224930
9.900000, 2.030385
9.920000, 3.333387
9.940000, 0.5785030
9.960000, 1.259525
9.980000, 0.4575540
10.00000, 1.762894
10.02000, 1.420620
10.04000, 1.320103
10.06000, 0.1201960
10.08000, 1.415070
10.10000, 0.1430610
10.12000, 0.2320010
10.14000, 1.1574000E-02
10.16000, 0.3281850
10.18000, 0.3229220
10.20000, 1.818631
10.22000, 8.9057997E-02
10.24000, 4.054645
10.26000, 9.762710
10.28000, 15.92497
10.30000, 19.43658
10.32000, 26.23142
10.34000, 30.83886
10.36000, 34.90636
10.38000, 42.06618
10.40000, 47.11203
10.42000, 46.84124
10.44000, 47.50214
10.46000, 46.08011
10.48000, 41.24311
10.50000, 40.98514
10.52000, 41.23595
10.54000, 42.21990
10.56000, 42.91316
10.58000, 43.82430
10.60000, 39.26263
10.62000, 33.20868
10.64000, 24.35072
10.66000, 15.38464
10.68000, 11.83361
10.70000, 8.422058
10.72000, 8.753134
10.74000, 7.703995
10.76000, 2.215543
10.78000, 2.222909
10.80000, 3.489505
10.82000, 3.082287
10.84000, 2.862205
10.86000, 0.7191990
10.88000, 1.250144
10.90000, 1.528120
10.92000, 2.053861
10.94000, 0.3699100
10.96000, 1.444898
10.98000, 3.181364
11.00000, 4.160380
11.02000, 3.928203
11.04000, 1.700773
11.06000, 0.5872570
11.08000, 2.223399
11.10000, 2.987045
11.12000, 5.139332
11.14000, 0.6176790
11.16000, 1.824231
11.18000, 0.6878070
11.20000, 4.925075
11.22000, 2.834848
11.24000, 4.718783
11.26000, 8.266671
11.28000, 17.20927
11.30000, 19.26127
11.32000, 23.96153
11.34000, 32.07098
11.36000, 41.67055
11.38000, 52.89794
11.40000, 66.37143
11.42000, 80.07993
11.44000, 97.80470
11.46000, 126.4316
11.48000, 160.0441
11.50000, 189.0079
11.52000, 225.2699
11.54000, 263.9559
11.56000, 308.3593
11.58000, 349.9351
11.60000, 395.8598
11.62000, 442.2533
11.64000, 477.1436
11.66000, 508.9888
11.68000, 534.9054
11.70000, 552.5362
11.72000, 571.8067
11.74000, 573.8710
11.76000, 576.8276
11.78000, 578.3063
11.80000, 568.3077
11.82000, 542.7411
11.84000, 504.6173
11.86000, 466.1557
11.88000, 429.7304
11.90000, 396.7647
11.92000, 365.0504
11.94000, 333.8195
11.96000, 304.0623
11.98000, 277.6835
12.00000, 254.5965
12.02000, 238.8320
12.04000, 231.5571
12.06000, 225.5471
12.08000, 222.5676
12.10000, 224.0915
12.12000, 229.3412
12.14000, 238.1865
12.16000, 252.1755
12.18000, 265.5800
12.20000, 283.2473
12.22000, 293.7570
12.24000, 298.8863
12.26000, 303.6679
12.28000, 306.2621
12.30000, 300.4554
12.32000, 287.3689
12.34000, 271.0311
12.36000, 253.3652
12.38000, 230.9897
12.40000, 208.4323
12.42000, 184.4368
12.44000, 157.8492
12.46000, 135.6163
12.48000, 119.4073
12.50000, 104.8449
12.52000, 88.93374
12.54000, 75.19029
12.56000, 64.06707
12.58000, 52.91986
12.60000, 43.72414
12.62000, 37.54150
12.64000, 29.60795
12.66000, 23.15831
12.68000, 17.28284
12.70000, 14.65200
12.72000, 18.51727
12.74000, 26.18242
12.76000, 37.60561
12.78000, 51.74080
12.80000, 70.62906
12.82000, 96.60832
12.84000, 131.3701
12.86000, 171.1148
12.88000, 214.7552
12.90000, 260.8010
12.92000, 310.8620
12.94000, 358.4917
12.96000, 400.6243
12.98000, 436.9443
13.00000, 467.9752
13.02000, 492.2896
13.04000, 509.6140
13.06000, 527.6909
13.08000, 549.5458
13.10000, 568.8352
13.12000, 591.4133
13.14000, 610.3405
13.16000, 626.8459
13.18000, 641.8022
13.20000, 655.9787
13.22000, 675.0404
13.24000, 688.7573
13.26000, 692.6385
13.28000, 685.1133
13.30000, 666.8862
13.32000, 648.9680
13.34000, 626.3665
13.36000, 598.3590
13.38000, 572.2266
13.40000, 551.8195
13.42000, 528.6858
13.44000, 504.4856
13.46000, 491.7075
13.48000, 484.0332
13.50000, 482.6854
13.52000, 494.3047
13.54000, 512.2961
13.56000, 536.2812
13.58000, 572.1647
13.60000, 612.3524
13.62000, 651.3461
13.64000, 683.3584
13.66000, 712.3076
13.68000, 741.2321
13.70000, 756.9683
13.72000, 767.4565
13.74000, 769.5450
13.76000, 762.7181
13.78000, 751.0392
13.80000, 734.8248
13.82000, 712.9698
13.84000, 678.8958
13.86000, 639.0363
13.88000, 599.3462
13.90000, 555.7472
13.92000, 509.1098
13.94000, 463.4054
13.96000, 420.9113
13.98000, 377.3195
14.00000, 332.4349
14.02000, 294.9156
14.04000, 259.5576
14.06000, 229.7950
14.08000, 205.0946
14.10000, 184.2660
14.12000, 169.1324
14.14000, 159.0646
14.16000, 153.0067
14.18000, 150.0973
14.20000, 155.4350
14.22000, 166.6720
14.24000, 178.4972
14.26000, 187.8107
14.28000, 194.8745
14.30000, 201.8346
14.32000, 203.9407
14.34000, 203.3771
14.36000, 199.7968
14.38000, 186.8704
14.40000, 173.9225
14.42000, 166.7506
14.44000, 158.9297
14.46000, 149.2903
14.48000, 137.9238
14.50000, 122.7484
14.52000, 105.1721
14.54000, 92.25387
14.56000, 81.26671
14.58000, 70.86666
14.60000, 64.05864
14.62000, 59.22340
14.64000, 55.31469
14.66000, 56.32446
14.68000, 56.45490
14.70000, 60.18839
14.72000, 67.10282
14.74000, 75.59734
14.76000, 87.81073
14.78000, 107.2292
14.80000, 127.8557
14.82000, 144.5994
14.84000, 161.7295
14.86000, 178.6900
14.88000, 191.1221
14.90000, 201.4003
14.92000, 211.1761
14.94000, 217.3133
14.96000, 219.0229
14.98000, 212.6762
15.00000, 205.1173
15.02000, 196.4431
15.04000, 184.6186
15.06000, 171.5497
15.08000, 154.0644
15.10000, 135.4710
15.12000, 119.8186
15.14000, 102.5006
15.16000, 83.45111
15.18000, 62.57103
15.20000, 42.55116
15.22000, 29.37988
15.24000, 18.94127
15.26000, 7.333603
15.28000, 1.769031
15.30000, 3.615384
15.32000, 1.054219
15.34000, 1.552634
15.36000, 1.117774
15.38000, 3.223619
15.40000, 3.163338
15.42000, 2.649776
15.44000, 2.173163
15.46000, 4.491801
15.48000, 5.265462
15.50000, 3.090564
15.52000, 2.413618
15.54000, 0.6350350
15.56000, 0.4629060
15.58000, 0.8265070
15.60000, 0.1927890
15.62000, 3.924810
15.64000, 4.370590
15.66000, 4.376232
15.68000, 3.153972
15.70000, 2.617031
15.72000, 2.652211
15.74000, 1.229052
15.76000, 1.257795
15.78000, 4.172671
15.80000, 1.062002
15.82000, 2.703830
15.84000, 5.677692
15.86000, 9.694547
15.88000, 12.98852
15.90000, 11.91563
15.92000, 13.13791
15.94000, 9.388896
15.96000, 10.25614
15.98000, 8.844246
16.00000, 5.031353
16.02000, 2.071718
16.04000, 1.681508
16.06000, 3.990912
16.08000, 2.395621
16.10000, 0.2351030
16.12000, 2.396019
16.14000, 1.920046
16.16000, 3.169491
16.18000, 3.054614
16.20000, 1.767759
16.22000, 4.448224
16.24000, 3.647046
16.26000, 2.828684
16.28000, 11.57000
16.30000, 24.95517
16.32000, 39.57932
16.34000, 56.21119
16.36000, 79.53871
16.38000, 105.1395
16.40000, 125.7929
16.42000, 141.4174
16.44000, 161.6225
16.46000, 187.0057
16.48000, 215.5430
16.50000, 254.2227
16.52000, 286.8249
16.54000, 331.1002
16.56000, 379.1389
16.58000, 427.1227
16.60000, 478.4715
16.62000, 534.5023
16.64000, 598.2667
16.66000, 649.8611
16.68000, 686.2561
16.70000, 713.2106
16.72000, 737.2256
16.74000, 752.3809
16.76000, 762.9365
16.78000, 767.6118
16.80000, 760.2278
16.82000, 745.7936
16.84000, 737.1394
16.86000, 717.9458
16.88000, 695.0220
16.90000, 672.1786
16.92000, 642.6453
16.94000, 617.6116
16.96000, 597.4985
16.98000, 579.7853
17.00000, 559.8821
17.02000, 532.9794
17.04000, 495.8666
17.06000, 463.3600
17.08000, 432.1123
17.10000, 403.0407
17.12000, 368.7660
17.14000, 325.1807
17.16000, 282.7340
17.18000, 252.3277
17.20000, 223.3041
17.22000, 191.3738
17.24000, 162.3213
17.26000, 143.8990
17.28000, 135.3163
17.30000, 132.5689
17.32000, 135.7834
17.34000, 148.6322
17.36000, 167.2594
17.38000, 191.5598
17.40000, 213.1439
17.42000, 229.5973
17.44000, 245.7157
17.46000, 264.2675
17.48000, 281.4359
17.50000, 287.4375
17.52000, 290.0199
17.54000, 292.4369
17.56000, 286.7067
17.58000, 271.9214
17.60000, 252.8666
17.62000, 227.9769
17.64000, 203.4229
17.66000, 176.6753
17.68000, 148.3389
17.70000, 127.6709
17.72000, 112.1290
17.74000, 96.85328
17.76000, 82.64292
17.78000, 70.15469
17.80000, 62.80473
17.82000, 57.33068
17.84000, 57.42358
17.86000, 58.87992
17.88000, 61.83138
17.90000, 68.13908
17.92000, 80.19942
17.94000, 92.99454
17.96000, 113.2430
17.98000, 134.1423
18.00000, 159.8864
18.02000, 193.3782
18.04000, 231.2265
18.06000, 271.3784
18.08000, 316.2181
18.10000, 359.0969
18.12000, 392.0351
18.14000, 425.2744
18.16000, 449.8680
18.18000, 462.7198
18.20000, 470.2445
18.22000, 462.5984
18.24000, 452.1606
18.26000, 437.8629
18.28000, 413.0158
18.30000, 388.7635
18.32000, 365.9390
18.34000, 340.9553
18.36000, 320.5282
18.38000, 307.1896
18.40000, 297.1540
18.42000, 289.2458
18.44000, 284.7253
18.46000, 280.0827
18.48000, 275.5187
18.50000, 275.3098
18.52000, 268.2547
18.54000, 256.1383
18.56000, 239.8334
18.58000, 219.7798
18.60000, 198.2312
18.62000, 181.1859
18.64000, 158.7397
18.66000, 132.7921
18.68000, 107.7362
18.70000, 87.51510
18.72000, 70.05790
18.74000, 50.51707
18.76000, 38.00499
18.78000, 23.81718
18.80000, 11.33701
18.82000, 1.395797
18.84000, 3.956725
18.86000, 1.691732
18.88000, 2.422141
18.90000, 4.881608
18.92000, 1.204389
18.94000, 7.5088002E-02
18.96000, 4.768688
18.98000, 13.55970
19.00000, 24.76969
19.02000, 36.49688
19.04000, 49.25317
19.06000, 60.75165
19.08000, 76.40585
19.10000, 89.54073
19.12000, 108.8404
19.14000, 128.5392
19.16000, 146.4408
19.18000, 163.3768
19.20000, 181.9248
19.22000, 203.9116
19.24000, 221.6685
19.26000, 233.0156
19.28000, 246.3766
19.30000, 265.9166
19.32000, 281.8706
19.34000, 291.2935
19.36000, 295.8974
19.38000, 300.8125
19.40000, 301.5863
19.42000, 294.9452
19.44000, 292.5320
19.46000, 281.9478
19.48000, 258.3215
19.50000, 231.2681
19.52000, 205.7388
19.54000, 182.3532
19.56000, 155.8096
19.58000, 130.6768
19.60000, 108.8599
19.62000, 86.50590
19.64000, 67.02581
19.66000, 50.41451
19.68000, 32.49607
19.70000, 12.54649
19.72000, 0.2217290
19.74000, 0.5252090
19.76000, 2.087263
19.78000, 1.322724
19.80000, 2.157486
19.82000, 0.9680760
19.84000, 1.015635
19.86000, 2.615500
19.88000, 0.6566000
19.90000, 3.273282
19.92000, 2.979186
19.94000, 2.199695
19.96000, 0.8966250
19.98000, 2.483050
20.00000, 2.796754
20.02000, 3.100064
20.04000, 0.6653240
20.06000, 5.941066
20.08000, 14.89224
20.10000, 19.42018
20.12000, 22.99955
20.14000, 24.62715
20.16000, 28.15861
20.18000, 30.59447
20.20000, 35.79218
20.22000, 42.58715
20.24000, 53.03549
20.26000, 59.89594
20.28000, 62.46856
20.30000, 61.11344
20.32000, 59.68549
20.34000, 60.85458
20.36000, 61.91581
20.38000, 62.98606
20.40000, 61.06742
20.42000, 58.34572
20.44000, 57.56908
20.46000, 57.10209
20.48000, 54.10658
20.50000, 51.38643
20.52000, 47.83858
20.54000, 49.11158
20.56000, 49.30555
20.58000, 47.37243
20.60000, 45.46192
20.62000, 44.90354
20.64000, 43.58784
20.66000, 42.89166
20.68000, 42.07548
20.70000, 41.43496
20.72000, 41.98746
20.74000, 42.61330
20.76000, 44.36287
20.78000, 45.93261
20.80000, 49.05988
20.82000, 52.47465
20.84000, 50.34462
20.86000, 47.05005
20.88000, 43.97292
20.90000, 37.84029
20.92000, 29.56358
20.94000, 25.43384
20.96000, 19.68377
20.98000, 14.28063
21.00000, 10.38855
21.02000, 5.435850
21.04000, 0.5967210
21.06000, 1.811466
21.08000, 2.682250
21.10000, 2.361006
21.12000, 5.064269
21.14000, 9.8921999E-02
21.16000, 0.1384940
21.18000, 0.3758400
21.20000, 2.244581
21.22000, 2.150067
21.24000, 0.8711100
21.26000, 1.588727
21.28000, 0.4081130
21.30000, 2.191898
21.32000, 1.595777
21.34000, 9.149394
21.36000, 14.03574
21.38000, 24.27145
21.40000, 34.06456
21.42000, 40.89201
21.44000, 51.04177
21.46000, 60.48993
21.48000, 73.45436
21.50000, 82.90916
21.52000, 89.51924
21.54000, 92.73955
21.56000, 94.59032
21.58000, 92.68330
21.60000, 87.07554
21.62000, 78.22416
21.64000, 70.30095
21.66000, 63.85200
21.68000, 56.90173
21.70000, 50.05776
21.72000, 44.56008
21.74000, 37.71581
21.76000, 30.61377
21.78000, 23.28692
21.80000, 19.90226
21.82000, 19.99186
21.84000, 23.83768
21.86000, 26.66715
21.88000, 32.26772
21.90000, 39.03924
21.92000, 45.88975
21.94000, 54.14746
21.96000, 61.57037
21.98000, 69.44547
22.00000, 68.27767
22.02000, 67.61510
22.04000, 67.49158
22.06000, 58.60628
22.08000, 51.32411
22.10000, 44.82008
22.12000, 36.20869
22.14000, 30.20703
22.16000, 20.46297
22.18000, 7.601377
22.20000, 2.884566
22.22000, 2.153382
22.24000, 2.632209
22.26000, 1.349583
22.28000, 3.006049
22.30000, 0.8690880
22.32000, 3.689226
22.34000, 1.596785
22.36000, 0.3753280
22.38000, 0.5827880
22.40000, 2.276353
22.42000, 2.119448
22.44000, 3.448798
22.46000, 0.8604490
22.48000, 1.597857
22.50000, 1.093501
22.52000, 5.564971
22.54000, 14.22961
22.56000, 23.76188
22.58000, 28.45823
22.60000, 30.52075
22.62000, 33.04469
22.64000, 35.42382
22.66000, 37.15294
22.68000, 38.13958
22.70000, 40.96415
22.72000, 40.91192
22.74000, 42.46627
22.76000, 47.33121
22.78000, 47.45368
22.80000, 52.59172
22.82000, 57.32631
22.84000, 54.34042
22.86000, 53.29702
22.88000, 58.16117
22.90000, 65.58278
22.92000, 76.27983
22.94000, 85.90053
22.96000, 98.94850
22.98000, 114.3958
23.00000, 131.1181
23.02000, 142.0405
23.04000, 161.5133
23.06000, 180.5066
23.08000, 188.7953
23.10000, 197.3206
23.12000, 208.0545
23.14000, 215.3517
23.16000, 219.5355
23.18000, 221.2290
23.20000, 222.6408
23.22000, 231.1932
23.24000, 237.4792
23.26000, 243.1768
23.28000, 250.6938
23.30000, 258.4337
23.32000, 270.9143
23.34000, 279.7507
23.36000, 298.8460
23.38000, 314.0770
23.40000, 328.8835
23.42000, 340.3586
23.44000, 351.8665
23.46000, 360.3983
23.48000, 366.1006
23.50000, 362.1386
23.52000, 353.5239
23.54000, 347.7358
23.56000, 338.3268
23.58000, 323.7325
23.60000, 306.7177
23.62000, 288.6948
23.64000, 269.4182
23.66000, 243.3598
23.68000, 226.7866
23.70000, 203.8997
23.72000, 179.7449
23.74000, 162.2060
23.76000, 142.5225
23.78000, 124.4282
23.80000, 109.2552
23.82000, 94.35082
23.84000, 86.06573
23.86000, 81.87404
23.88000, 79.88174
23.90000, 73.98295
23.92000, 68.52557
23.94000, 67.81473
23.96000, 64.03927
23.98000, 61.03233
24.00000, 59.16494
24.02000, 63.94405
24.04000, 70.16669
24.06000, 75.59731
24.08000, 76.93576
24.10000, 73.71892
24.12000, 71.49487
24.14000, 70.53540
24.16000, 65.39542
24.18000, 63.69414
24.20000, 61.46942
24.22000, 61.65516
24.24000, 59.33893
24.26000, 63.32821
24.28000, 65.21713
24.30000, 63.78076
24.32000, 65.57615
24.34000, 72.29427
24.36000, 75.94115
24.38000, 80.64375
24.40000, 89.03011
24.42000, 95.09542
24.44000, 98.79343
24.46000, 100.7283
24.48000, 96.45509
24.50000, 91.44563
24.52000, 85.04119
24.54000, 76.00321
24.56000, 69.26015
24.58000, 60.95171
24.60000, 50.42850
24.62000, 42.34087
24.64000, 31.60555
24.66000, 19.30349
24.68000, 11.73516
24.70000, 6.848022
24.72000, 2.963080
24.74000, 2.297282
24.76000, 0.7188150
24.78000, 0.7892680
24.80000, 2.946918
24.82000, 2.976316
24.84000, 2.186427
24.86000, 1.067922
24.88000, 3.174675
24.90000, 0.4790010
24.92000, 2.178345
24.94000, 2.889417
24.96000, 2.175975
24.98000, 0.1620940
25.00000, 0.1306410
25.02000, 1.397445
25.04000, 13.97744
25.06000, 24.80362
25.08000, 29.91690
25.10000, 39.65021
25.12000, 37.95081
25.14000, 33.44547
25.16000, 31.51343
25.18000, 28.76366
25.20000, 26.94612
25.22000, 21.35291
25.24000, 18.79395
25.26000, 12.88757
25.28000, 11.24950
25.30000, 3.585858
25.32000, 0.6592110
25.34000, 0.8146940
25.36000, 2.851812
25.38000, 2.879422
25.40000, 4.599983
25.42000, 6.472979
25.44000, 10.79667
25.46000, 22.26304
25.48000, 35.39011
25.50000, 40.83492
25.52000, 41.12648
25.54000, 48.14786
25.56000, 54.95905
25.58000, 58.26309
25.60000, 63.24598
25.62000, 63.61852
25.64000, 62.99251
25.66000, 62.01326
25.68000, 58.54783
25.70000, 56.39951
25.72000, 58.09923
25.74000, 58.66793
25.76000, 56.62173
25.78000, 55.60471
25.80000, 53.90679
25.82000, 49.26049
25.84000, 49.70512
25.86000, 49.73125
25.88000, 51.57884
25.90000, 53.69997
25.92000, 60.06174
25.94000, 63.29091
25.96000, 65.08713
25.98000, 72.02457
26.00000, 76.22489
26.02000, 85.50053
26.04000, 89.24567
26.06000, 99.22696
26.08000, 108.5367
26.10000, 117.9844
26.12000, 124.8500
26.14000, 134.9817
26.16000, 136.6485
26.18000, 138.3477
26.20000, 136.9132
26.22000, 130.0155
26.24000, 123.3432
26.26000, 109.4343
26.28000, 92.66496
26.30000, 76.77822
26.32000, 67.94800
26.34000, 59.92831
26.36000, 47.01535
26.38000, 29.86893
26.40000, 18.78417
26.42000, 7.024143
26.44000, 0.2742130
26.46000, 1.957037
26.48000, 7.4066997E-02
26.50000, 1.007613
26.52000, 3.957877
26.54000, 12.25916
26.56000, 24.22118
26.58000, 31.63811
26.60000, 46.39783
26.62000, 61.01555
26.64000, 77.62616
26.66000, 93.73470
26.68000, 112.1912
26.70000, 126.4208
26.72000, 131.4642
26.74000, 132.5837
26.76000, 129.8522
26.78000, 129.3609
26.80000, 122.4747
26.82000, 114.6375
26.84000, 100.6234
26.86000, 85.66255
26.88000, 76.82584
26.90000, 62.08745
26.92000, 51.81242
26.94000, 36.19486
26.96000, 22.21055
26.98000, 8.357450
27.00000, 1.896508
27.02000, 0.2772450
27.04000, 0.4305780
27.06000, 3.161496
27.08000, 1.124917
27.10000, 7.8319997E-02
27.12000, 2.522669
27.14000, 1.447850
27.16000, 9.671218
27.18000, 25.26943
27.20000, 40.54303
27.22000, 51.85733
27.24000, 64.08312
27.26000, 72.92447
27.28000, 83.40305
27.30000, 93.42442
27.32000, 102.1287
27.34000, 108.1280
27.36000, 116.3871
27.38000, 123.6650
27.40000, 125.3230
27.42000, 121.2227
27.44000, 115.8496
27.46000, 103.1726
27.48000, 88.75660
27.50000, 79.94080
27.52000, 69.78040
27.54000, 57.47071
27.56000, 47.10831
27.58000, 36.07322
27.60000, 26.90515
27.62000, 17.18431
27.64000, 8.786058
27.66000, 1.320959
27.68000, 1.842214
27.70000, 2.539692
27.72000, 7.454473
27.74000, 12.43156
27.76000, 13.01239
27.78000, 18.06878
27.80000, 20.79388
27.82000, 24.24324
27.84000, 33.20895
27.86000, 37.76387
27.88000, 35.20007
27.90000, 33.80062
27.92000, 35.88441
27.94000, 37.73947
27.96000, 36.46492
27.98000, 34.29462
28.00000, 31.37665
28.02000, 25.98601
28.04000, 20.26368
28.06000, 19.69666
28.08000, 20.98894
28.10000, 19.51162
28.12000, 15.67956
28.14000, 13.53388
28.16000, 8.639543
28.18000, 2.239565
28.20000, 2.926024
28.22000, 2.024039
28.24000, 2.930411
28.26000, 2.863161
28.28000, 1.011083
28.30000, 2.791105
28.32000, 3.937355
28.34000, 1.921198
28.36000, 1.536529
28.38000, 3.089799
28.40000, 0.8504500
28.42000, 3.373909
28.44000, 1.003586
28.46000, 0.1781210
28.48000, 3.319898
28.50000, 3.436497
28.52000, 1.659526
28.54000, 11.59779
28.56000, 10.78952
28.58000, 19.25389
28.60000, 27.91907
28.62000, 28.69212
28.64000, 34.16721
28.66000, 53.38490
28.68000, 67.13803
28.70000, 76.41653
28.72000, 83.16924
28.74000, 93.23241
28.76000, 101.4157
28.78000, 112.8578
28.80000, 117.6850
28.82000, 129.8386
28.84000, 135.5670
28.86000, 133.4626
28.88000, 129.1882
28.90000, 122.0593
28.92000, 117.8715
28.94000, 112.7372
28.96000, 110.5012
28.98000, 100.0285
29.00000, 88.63017
29.02000, 83.26723
29.04000, 77.43456
29.06000, 63.62519
29.08000, 49.51910
29.10000, 43.92325
29.12000, 41.31860
29.14000, 40.58618
29.16000, 35.15799
29.18000, 23.86100
29.20000, 17.46629
29.22000, 27.04068
29.24000, 38.38741
29.26000, 44.52826
29.28000, 44.95827
29.30000, 45.76393
29.32000, 46.00744
29.34000, 48.53214
29.36000, 45.97099
29.38000, 43.17591
29.40000, 45.88416
29.42000, 53.63262
29.44000, 64.05563
29.46000, 71.98164
29.48000, 71.18491
29.50000, 65.61075
29.52000, 63.15847
29.54000, 64.58885
29.56000, 64.10746
29.58000, 56.33431
29.60000, 53.77397
29.62000, 45.55182
29.64000, 31.00763
29.66000, 22.04040
29.68000, 18.96136
29.70000, 11.36483
29.72000, 5.174691
29.74000, 6.630425
29.76000, 16.12303
29.78000, 20.15948
29.80000, 12.62329
29.82000, 11.86734
29.84000, 8.727620
29.86000, 7.009098
29.88000, 9.197710
29.90000, 8.423556
29.92000, 13.65639
29.94000, 24.48140
29.96000, 25.47147
29.98000, 23.41062
30.00000, 26.78504
30.02000, 25.87789
30.04000, 28.96217
30.06000, 31.00979
30.08000, 35.43669
30.10000, 37.19053
30.12000, 39.56376
30.14000, 41.44148
30.16000, 43.36086
30.18000, 45.24378
30.20000, 47.29584
30.22000, 42.66256
30.24000, 45.11213
30.26000, 47.94695
30.28000, 52.04040
30.30000, 71.39446
30.32000, 88.29018
30.34000, 99.08433
30.36000, 109.7071
30.38000, 117.9294
30.40000, 122.8392
30.42000, 124.7452
30.44000, 131.1168
30.46000, 136.1895
30.48000, 132.1048
30.50000, 119.8228
30.52000, 108.9763
30.54000, 101.2367
30.56000, 98.56934
30.58000, 100.6687
30.60000, 108.8689
30.62000, 113.2819
30.64000, 105.4502
30.66000, 94.63535
30.68000, 100.2278
30.70000, 102.5164
30.72000, 103.6703
30.74000, 95.76588
30.76000, 83.81936
30.78000, 77.99719
30.80000, 75.54392
30.82000, 75.12131
30.84000, 80.41829
30.86000, 94.93820
30.88000, 106.4295
30.90000, 109.6646
30.92000, 108.4165
30.94000, 105.8235
30.96000, 104.3858
30.98000, 106.6639
31.00000, 109.9464
31.02000, 119.2001
31.04000, 123.8468
31.06000, 130.1552
31.08000, 137.9485
31.10000, 142.1991
31.12000, 147.9525
31.14000, 153.0385
31.16000, 154.5184
31.18000, 154.0089
31.20000, 150.8746
31.22000, 155.0656
31.24000, 151.1750
31.26000, 154.0258
31.28000, 144.8123
31.30000, 138.0732
31.32000, 130.0755
31.34000, 108.9111
31.36000, 96.62173
31.38000, 94.62319
31.40000, 96.35199
31.42000, 86.24471
31.44000, 76.76401
31.46000, 65.68108
31.48000, 45.03031
31.50000, 34.28422
31.52000, 30.79690
31.54000, 25.23327
31.56000, 19.69743
31.58000, 17.12735
31.60000, 7.327045
31.62000, 3.704521
31.64000, 7.403790
31.66000, 3.125092
31.68000, 2.796026
31.70000, 7.613060
31.72000, 8.225904
31.74000, 7.312492
31.76000, 11.62851
31.78000, 10.84911
31.80000, 10.40281
31.82000, 9.749305
31.84000, 9.637583
31.86000, 12.72516
31.88000, 15.26238
31.90000, 14.31390
31.92000, 14.05004
31.94000, 14.57447
31.96000, 18.28047
31.98000, 18.95320
32.00000, 13.62327
32.02000, 4.151398
32.04000, 3.229358
32.06000, 4.9194001E-02
32.08000, 1.556928
32.10000, 2.917554
32.12000, 2.817897
32.14000, 1.078867
32.16000, 2.286264
32.18000, 8.224874
32.20000, 8.218818
32.22000, 4.123865
32.24000, 6.290729
32.26000, 3.528966
32.28000, 0.7696590
32.30000, 2.416779
32.32000, 2.419947
32.34000, 0.9043880
32.36000, 0.8949030
32.38000, 1.287167
32.40000, 0.8635190
32.42000, 1.108399
32.44000, 0.7319990
32.46000, 1.115106
32.48000, 1.387016
32.50000, 3.100932
32.52000, 1.006299
32.54000, 2.604956
32.56000, 9.130518
32.58000, 16.05133
32.60000, 18.24175
32.62000, 18.99306
32.64000, 18.17724
32.66000, 22.18742
32.68000, 24.01615
32.70000, 22.06860
32.72000, 19.62423
32.74000, 17.67294
32.76000, 18.18398
32.78000, 18.37035
32.80000, 18.46589
32.82000, 16.80440
32.84000, 17.75778
32.86000, 14.40866
32.88000, 9.293945
32.90000, 11.07675
32.92000, 15.63060
32.94000, 17.71029
32.96000, 12.83880
32.98000, 0.9820160
33.00000, 0.5217320
33.02000, 8.487641
33.04000, 10.63958
33.06000, 12.32974
33.08000, 10.04302
33.10000, 2.560104
33.12000, 8.2805000E-02
33.14000, 0.4970290
33.16000, 0.5483810
33.18000, 0.8920710
33.20000, 4.0380000E-03
33.22000, 2.674722
33.24000, 7.478208
33.26000, 13.48650
33.28000, 14.53359
33.30000, 16.04441
33.32000, 10.12696
33.34000, 4.485249
33.36000, 5.089551
33.38000, 3.879065
33.40000, 3.127696
33.42000, 7.796345
33.44000, 11.42510
33.46000, 19.71614
33.48000, 17.27622
33.50000, 15.31539
33.52000, 19.94151
33.54000, 15.82842
33.56000, 17.40510
33.58000, 26.68776
33.60000, 30.34161
33.62000, 33.34478
33.64000, 39.19049
33.66000, 43.83549
33.68000, 41.36010
33.70000, 36.24678
33.72000, 34.01609
33.74000, 34.96876
33.76000, 38.01582
33.78000, 38.69086
33.80000, 47.00393
33.82000, 50.57022
33.84000, 52.20369
33.86000, 48.58782
33.88000, 50.65129
33.90000, 49.98767
33.92000, 46.90543
33.94000, 48.00448
33.96000, 47.07767
33.98000, 47.32055
34.00000, 52.80926
34.02000, 48.57014
34.04000, 49.53350
34.06000, 49.50016
34.08000, 45.33600
34.10000, 47.58590
34.12000, 45.55334
34.14000, 34.08989
34.16000, 24.09256
34.18000, 22.62644
34.20000, 25.26661
34.22000, 27.61628
34.24000, 27.07619
34.26000, 25.42082
34.28000, 23.51593
34.30000, 29.98228
34.32000, 39.73530
34.34000, 43.70548
34.36000, 46.09247
34.38000, 53.47509
34.40000, 58.22428
34.42000, 64.77713
34.44000, 78.85541
34.46000, 81.53783
34.48000, 88.42531
34.50000, 92.02922
34.52000, 97.58192
34.54000, 98.48451
34.56000, 90.99479
34.58000, 88.58998
34.60000, 82.47693
34.62000, 74.69491
34.64000, 68.35696
34.66000, 60.50145
34.68000, 62.37373
34.70000, 58.89111
34.72000, 54.26411
34.74000, 46.88469
34.76000, 43.54530
34.78000, 34.98852
34.80000, 26.36441
34.82000, 21.56556
34.84000, 17.52505
34.86000, 22.77644
34.88000, 13.54231
34.90000, 11.74337
34.92000, 10.09949
34.94000, 2.905415
34.96000, 0.2490380
34.98000, 2.2724001E-02
35.00000, 0.5464050
35.02000, 0.2633230
35.04000, 1.559579
35.06000, 5.648967
35.08000, 9.025291
35.10000, 13.32885
35.12000, 16.19479
35.14000, 10.32867
35.16000, 3.491222
35.18000, 3.078376
35.20000, 2.1699999E-04
35.22000, 0.0000000E+00
##END=



