##NAMES=Pyrite
##RRUFFID=R070692
##IDEAL CHEMISTRY=Fe^2+^(S_2_)^2-^
##LOCALITY=Pohla, Schwarzenberg, Erzebirge, Saxony, Germany
##OWNER=RRUFF
##SOURCE=James Shigley
##DESCRIPTION=Yellow-brown metallic prismatic crystals with light blue tarnish, pseudomorph after argentopyrite. Even though they look like good crystals, the sample is extremely fine-grained.
##DIFFRACTION SAMPLE DESCRIPTION=Powder, using Mo radiation
##STATUS=The identification of this mineral has been confirmed by single-crystal X-ray diffraction.
##URL=rruff.info/R070692
##CELL PARAMETERS=a: 5.4351(8) b: 5.4351(8) c: 5.4351(8) alpha: 90 beta: 90 gamma: 90 volume: 160.56(7) crystal system: cubic
1.710000, 0.0000000E+00
1.740000, 9.8509997E-02
1.770000, 4.393931
1.800000, 5.192928
1.830000, 5.109203
1.860000, 3.710188
1.890000, 3.528157
1.920000, 2.367317
1.950000, 6.0438000E-02
1.980000, 0.4046850
2.010000, 0.3530490
2.040000, 3.458677
2.070000, 3.085513
2.100000, 8.151871
2.130000, 10.16658
2.160000, 12.55728
2.190000, 17.42061
2.220000, 15.17023
2.250000, 17.56023
2.280000, 19.89686
2.310000, 19.19863
2.340000, 19.20871
2.370000, 20.68559
2.400000, 19.45174
2.430000, 19.99219
2.460000, 19.75647
2.490000, 18.68523
2.520000, 20.03505
2.550000, 18.38815
2.580000, 20.47388
2.610000, 20.36429
2.640000, 17.59762
2.670000, 19.93155
2.700000, 24.45504
2.730000, 25.21058
2.760000, 23.94493
2.790000, 23.00204
2.820000, 23.82503
2.850000, 21.70469
2.880000, 17.24150
2.910000, 17.51828
2.940000, 21.07869
2.970000, 21.84128
3.000000, 11.53260
3.030000, 5.176206
3.060000, 2.668620
3.090000, 1.651496
3.120000, 0.3153980
3.150000, 3.104894
3.180000, 14.53536
3.210000, 18.49387
3.240000, 12.51728
3.270000, 11.55452
3.300000, 12.01237
3.330000, 6.120543
3.360000, 0.6851560
3.390000, 6.417989
3.420000, 0.4871530
3.450000, 9.951129
3.480000, 14.63783
3.510000, 15.42673
3.540000, 16.12595
3.570000, 11.51210
3.600000, 8.256592
3.630000, 16.29664
3.660000, 23.10976
3.690000, 22.85129
3.720000, 26.07940
3.750000, 28.40974
3.780000, 24.15156
3.810000, 27.54953
3.840000, 23.83556
3.870000, 14.29883
3.900000, 4.089493
3.930000, 1.385633
3.960000, 0.6615660
3.990000, 0.4239960
4.020000, 3.351261
4.050000, 5.942318
4.080000, 6.175385
4.110000, 3.001618
4.140000, 2.142035
4.170000, 7.046347
4.200000, 16.79264
4.230000, 18.15379
4.260000, 18.62997
4.290000, 20.93318
4.320000, 23.20746
4.350000, 25.87176
4.380000, 24.14424
4.410000, 19.37589
4.440000, 15.79569
4.470000, 21.12163
4.500000, 29.69080
4.530000, 34.03114
4.560000, 35.50204
4.590000, 37.42853
4.620000, 40.62838
4.650000, 43.59933
4.680000, 52.70875
4.710000, 60.65098
4.740000, 61.94594
4.770000, 59.98045
4.800000, 67.41350
4.830000, 75.62886
4.860000, 82.45774
4.890000, 93.34019
4.920000, 86.08315
4.950000, 70.48152
4.980000, 70.72842
5.010000, 75.57373
5.040000, 73.69743
5.070000, 72.38150
5.100000, 70.17488
5.130000, 67.75164
5.160000, 64.77959
5.190000, 64.31932
5.220000, 65.53555
5.250000, 65.50728
5.280000, 66.54015
5.310000, 71.26271
5.340000, 73.46585
5.370000, 79.53476
5.400000, 81.02540
5.430000, 78.59621
5.460000, 72.59061
5.490000, 61.31990
5.520000, 51.09411
5.550000, 50.83424
5.580000, 55.33111
5.610000, 60.73759
5.640000, 59.44627
5.670000, 53.63990
5.700000, 57.00190
5.730000, 57.64787
5.760000, 54.83020
5.790000, 61.13969
5.820000, 62.36420
5.850000, 60.66644
5.880000, 56.38026
5.910000, 53.40251
5.940000, 50.31800
5.970000, 49.69254
6.000000, 54.41204
6.030000, 62.03915
6.060000, 63.06591
6.090000, 53.77519
6.120000, 38.43489
6.150000, 30.49385
6.180000, 36.18097
6.210000, 42.96249
6.240000, 45.22602
6.270000, 44.96758
6.300000, 45.60303
6.330000, 49.88237
6.360000, 47.00342
6.390000, 48.12217
6.420000, 47.03051
6.450000, 44.39430
6.480000, 43.63841
6.510000, 45.58908
6.540000, 48.34088
6.570000, 43.52254
6.600000, 36.86261
6.630000, 35.91627
6.660000, 36.66132
6.690000, 36.54860
6.720000, 44.94294
6.750000, 45.61126
6.780000, 51.06041
6.810000, 56.24309
6.840000, 50.65912
6.870000, 43.29681
6.900000, 38.32412
6.930000, 32.99504
6.960000, 29.55920
6.990000, 25.56836
7.020000, 25.65837
7.050000, 25.15199
7.080000, 17.79041
7.110000, 15.65016
7.140000, 17.85827
7.170000, 19.30228
7.200000, 24.21811
7.230000, 28.66213
7.260000, 30.77943
7.290000, 30.72792
7.320000, 22.80414
7.350000, 15.93719
7.380000, 18.41648
7.410000, 26.45601
7.440000, 31.65091
7.470000, 31.20118
7.500000, 30.26873
7.530000, 34.53032
7.560000, 33.23967
7.590000, 32.81943
7.620000, 33.15927
7.650000, 29.25067
7.680000, 28.36184
7.710000, 24.61795
7.740000, 24.02138
7.770000, 23.60150
7.800000, 24.01025
7.830000, 26.59233
7.860000, 29.01172
7.890000, 36.21765
7.920000, 39.76302
7.950000, 33.70519
7.980000, 28.67411
8.010000, 22.60083
8.040000, 18.65827
8.070000, 22.89244
8.100000, 21.56425
8.130000, 17.23079
8.160000, 14.06890
8.190000, 13.51963
8.220000, 11.71136
8.250000, 12.50262
8.280000, 11.02091
8.310000, 11.53761
8.340000, 10.97877
8.370000, 10.03032
8.400000, 11.53924
8.430000, 12.44754
8.460000, 13.13811
8.490000, 14.61186
8.520000, 19.34524
8.550000, 17.86569
8.580000, 17.63734
8.610000, 20.69030
8.640000, 17.85015
8.670000, 20.89684
8.700000, 15.33453
8.730000, 14.84408
8.760000, 14.64184
8.790000, 12.70672
8.820000, 9.777987
8.850000, 12.58856
8.880000, 17.98550
8.910000, 17.03204
8.940000, 16.83705
8.970000, 16.65076
9.000000, 11.87014
9.030000, 5.005843
9.060000, 4.706316
9.090000, 6.041129
9.120000, 7.017742
9.150000, 6.291451
9.180000, 5.124157
9.210000, 5.825050
9.240000, 4.989733
9.270000, 7.213068
9.300000, 5.311158
9.330000, 7.477240
9.360000, 9.597279
9.390000, 8.918268
9.420000, 9.058166
9.450000, 5.855944
9.480000, 2.546594
9.510000, 6.518067
9.540000, 12.81535
9.570000, 16.52744
9.600000, 16.62328
9.630000, 14.49788
9.660000, 15.28427
9.690000, 15.49633
9.720000, 10.56311
9.750000, 3.003598
9.780000, 0.6742310
9.810000, 1.851425
9.840000, 5.366695
9.870000, 9.304626
9.900000, 6.546180
9.930000, 3.422338
9.960000, 4.128086
9.990000, 2.684374
10.02000, 0.6487670
10.05000, 4.266616
10.08000, 3.490922
10.11000, 0.3462950
10.14000, 5.725944
10.17000, 6.410221
10.20000, 2.488227
10.23000, 0.1010070
10.26000, 0.6638780
10.29000, 3.436776
10.32000, 6.242157
10.35000, 8.705019
10.38000, 9.935691
10.41000, 14.97537
10.44000, 11.57687
10.47000, 13.23057
10.50000, 14.10649
10.53000, 6.872592
10.56000, 1.952872
10.59000, 1.702023
10.62000, 2.635051
10.65000, 4.307661
10.68000, 5.613811
10.71000, 7.454026
10.74000, 8.493651
10.77000, 8.765800
10.80000, 7.520626
10.83000, 7.836928
10.86000, 2.180442
10.89000, 3.227172
10.92000, 1.235590
10.95000, 2.342185
10.98000, 2.097690
11.01000, 0.5466620
11.04000, 0.1059850
11.07000, 0.3164060
11.10000, 2.3205999E-02
11.13000, 0.7128590
11.16000, 0.3531740
11.19000, 2.802389
11.22000, 1.136859
11.25000, 1.885523
11.28000, 2.027784
11.31000, 0.2883380
11.34000, 0.7692580
11.37000, 1.687973
11.40000, 1.168793
11.43000, 1.397060
11.46000, 1.622134
11.49000, 1.627662
11.52000, 13.25484
11.55000, 23.32840
11.58000, 33.32344
11.61000, 46.95297
11.64000, 58.34687
11.67000, 72.20415
11.70000, 86.74489
11.73000, 92.55995
11.76000, 95.98539
11.79000, 96.98618
11.82000, 100.3153
11.85000, 98.58111
11.88000, 97.44445
11.91000, 93.35336
11.94000, 89.63054
11.97000, 84.36000
12.00000, 75.49973
12.03000, 59.76865
12.06000, 43.00379
12.09000, 31.63015
12.12000, 20.51779
12.15000, 9.939904
12.18000, 5.555641
12.21000, 0.6897640
12.24000, 2.042224
12.27000, 0.3143420
12.30000, 1.359854
12.33000, 1.428512
12.36000, 0.3677360
12.39000, 0.3266540
12.42000, 1.208524
12.45000, 1.282970
12.48000, 0.9211310
12.51000, 1.729424
12.54000, 9.5816001E-02
12.57000, 3.0502999E-02
12.60000, 8.192173
12.63000, 17.59732
12.66000, 36.11485
12.69000, 57.34019
12.72000, 91.40102
12.75000, 125.9736
12.78000, 178.9472
12.81000, 235.6401
12.84000, 296.5625
12.87000, 352.6864
12.90000, 395.3501
12.93000, 424.5424
12.96000, 430.5651
12.99000, 434.1824
13.02000, 435.3083
13.05000, 439.0458
13.08000, 440.0497
13.11000, 433.1245
13.14000, 424.2698
13.17000, 404.0928
13.20000, 359.7589
13.23000, 306.3599
13.26000, 247.9814
13.29000, 191.7550
13.32000, 139.1172
13.35000, 92.40656
13.38000, 55.71907
13.41000, 32.20483
13.44000, 20.01986
13.47000, 15.13714
13.50000, 15.57786
13.53000, 15.82473
13.56000, 15.07001
13.59000, 12.96354
13.62000, 11.93289
13.65000, 6.924544
13.68000, 2.517992
13.71000, 0.7513390
13.74000, 7.3907003E-02
13.77000, 0.5382390
13.80000, 0.2162240
13.83000, 0.3120470
13.86000, 0.4656860
13.89000, 2.434863
13.92000, 1.221662
13.95000, 1.031943
13.98000, 0.7554200
14.01000, 2.446425
14.04000, 4.964816
14.07000, 6.543756
14.10000, 6.925140
14.13000, 6.172032
14.16000, 0.7433670
14.19000, 0.7134040
14.22000, 0.3468040
14.25000, 2.603882
14.28000, 1.156894
14.31000, 0.3459340
14.34000, 0.3525660
14.37000, 0.9368760
14.40000, 1.921655
14.43000, 1.4542000E-02
14.46000, 0.1107790
14.49000, 4.118309
14.52000, 8.372025
14.55000, 10.93692
14.58000, 16.59297
14.61000, 25.67696
14.64000, 42.14988
14.67000, 67.41482
14.70000, 108.7129
14.73000, 174.2689
14.76000, 268.4632
14.79000, 389.0081
14.82000, 533.2413
14.85000, 706.1523
14.88000, 879.0764
14.91000, 1066.260
14.94000, 1207.016
14.97000, 1325.914
15.00000, 1424.233
15.03000, 1482.904
15.06000, 1527.656
15.09000, 1542.634
15.12000, 1516.264
15.15000, 1474.636
15.18000, 1388.390
15.21000, 1258.806
15.24000, 1094.073
15.27000, 902.2126
15.30000, 724.8104
15.33000, 549.3068
15.36000, 407.8325
15.39000, 292.8608
15.42000, 202.4546
15.45000, 139.9670
15.48000, 100.7840
15.51000, 74.99059
15.54000, 57.92970
15.57000, 47.40768
15.60000, 40.26405
15.63000, 34.51518
15.66000, 27.58365
15.69000, 22.94075
15.72000, 19.98575
15.75000, 18.91917
15.78000, 23.52498
15.81000, 21.00619
15.84000, 15.92104
15.87000, 13.48690
15.90000, 7.511915
15.93000, 3.799327
15.96000, 6.066286
15.99000, 8.073842
16.02000, 7.454564
16.05000, 6.431962
16.08000, 3.057899
16.11000, 0.6875810
16.14000, 3.176409
16.17000, 3.263300
16.20000, 1.949849
16.23000, 0.6163800
16.26000, 0.6846470
16.29000, 0.8295540
16.32000, 0.5184500
16.35000, 1.764899
16.38000, 3.508011
16.41000, 11.37093
16.44000, 29.07614
16.47000, 52.26658
16.50000, 86.37643
16.53000, 133.0685
16.56000, 195.7355
16.59000, 270.7572
16.62000, 360.2726
16.65000, 457.0888
16.68000, 546.7938
16.71000, 636.8792
16.74000, 714.5776
16.77000, 780.5153
16.80000, 816.4603
16.83000, 839.4276
16.86000, 848.6639
16.89000, 840.8890
16.92000, 814.6760
16.95000, 775.0793
16.98000, 707.5996
17.01000, 636.2706
17.04000, 542.8271
17.07000, 447.3055
17.10000, 353.2591
17.13000, 266.0395
17.16000, 191.3628
17.19000, 136.1434
17.22000, 101.0431
17.25000, 77.23692
17.28000, 64.40572
17.31000, 58.92563
17.34000, 58.98021
17.37000, 62.96937
17.40000, 67.15004
17.43000, 68.92481
17.46000, 67.58276
17.49000, 67.03441
17.52000, 71.30372
17.55000, 72.30132
17.58000, 72.23592
17.61000, 74.06478
17.64000, 74.26140
17.67000, 69.97679
17.70000, 62.76893
17.73000, 56.27678
17.76000, 51.87511
17.79000, 45.25143
17.82000, 39.44294
17.85000, 35.28173
17.88000, 29.76817
17.91000, 22.90497
17.94000, 19.40390
17.97000, 19.70922
18.00000, 21.75586
18.03000, 31.70731
18.06000, 47.40248
18.09000, 61.57275
18.12000, 84.15428
18.15000, 123.3503
18.18000, 172.8695
18.21000, 230.8140
18.24000, 292.3683
18.27000, 358.0880
18.30000, 423.0348
18.33000, 487.0977
18.36000, 536.6249
18.39000, 576.5131
18.42000, 602.6950
18.45000, 616.5647
18.48000, 618.3547
18.51000, 608.2466
18.54000, 580.7460
18.57000, 537.3849
18.60000, 484.0886
18.63000, 430.8125
18.66000, 365.3517
18.69000, 295.0547
18.72000, 230.6684
18.75000, 169.4237
18.78000, 122.1193
18.81000, 87.59902
18.84000, 63.06685
18.87000, 47.11863
18.90000, 33.54806
18.93000, 23.90402
18.96000, 17.30857
18.99000, 15.26380
19.02000, 12.83898
19.05000, 10.48239
19.08000, 9.367046
19.11000, 8.952029
19.14000, 7.759398
19.17000, 7.337072
19.20000, 8.198023
19.23000, 7.633328
19.26000, 5.008911
19.29000, 2.688500
19.32000, 1.475728
19.35000, 0.2803260
19.38000, 0.5701140
19.41000, 0.5870050
19.44000, 0.5410580
19.47000, 0.6724040
19.50000, 1.504574
19.53000, 3.367591
19.56000, 1.522897
19.59000, 0.1685080
19.62000, 2.161910
19.65000, 0.2178040
19.68000, 2.700280
19.71000, 6.373336
19.74000, 7.347576
19.77000, 6.124732
19.80000, 3.556476
19.83000, 2.438762
19.86000, 3.630035
19.89000, 6.458009
19.92000, 8.068654
19.95000, 9.344563
19.98000, 7.405234
20.01000, 3.079348
20.04000, 1.329510
20.07000, 0.5411040
20.10000, 0.7742030
20.13000, 2.429618
20.16000, 0.7075090
20.19000, 0.8181090
20.22000, 0.9369650
20.25000, 0.5015500
20.28000, 1.540620
20.31000, 4.245181
20.34000, 3.660563
20.37000, 1.791475
20.40000, 0.1269290
20.43000, 0.4271740
20.46000, 1.235467
20.49000, 1.621443
20.52000, 1.202272
20.55000, 1.470095
20.58000, 1.367202
20.61000, 0.6164340
20.64000, 1.276038
20.67000, 0.4179310
20.70000, 1.269370
20.73000, 0.4388780
20.76000, 0.3655770
20.79000, 0.4247650
20.82000, 2.026287
20.85000, 1.710380
20.88000, 3.754586
20.91000, 13.65203
20.94000, 23.25337
20.97000, 41.49675
21.00000, 66.98889
21.03000, 106.8240
21.06000, 159.6089
21.09000, 221.5224
21.12000, 295.3315
21.15000, 383.0851
21.18000, 479.4839
21.21000, 575.9252
21.24000, 668.5176
21.27000, 755.0023
21.30000, 811.1559
21.33000, 832.4529
21.36000, 839.9210
21.39000, 825.6304
21.42000, 774.3135
21.45000, 716.8569
21.48000, 646.4614
21.51000, 557.1282
21.54000, 461.4231
21.57000, 364.7950
21.60000, 283.8864
21.63000, 205.2825
21.66000, 148.5710
21.69000, 105.7533
21.72000, 72.82428
21.75000, 50.24823
21.78000, 39.95501
21.81000, 33.51867
21.84000, 28.09614
21.87000, 21.15953
21.90000, 14.52777
21.93000, 9.815928
21.96000, 10.41296
21.99000, 10.40388
22.02000, 6.567752
22.05000, 2.590539
22.08000, 1.030217
22.11000, 1.341111
22.14000, 2.597223
22.17000, 0.7158800
22.20000, 2.241952
22.23000, 2.939629
22.26000, 2.343210
22.29000, 3.165743
22.32000, 2.723928
22.35000, 3.049343
22.38000, 3.657106
22.41000, 1.908029
22.44000, 0.3080710
22.47000, 0.9733480
22.50000, 0.8512030
22.53000, 1.490395
22.56000, 1.958665
22.59000, 4.5396999E-02
22.62000, 0.7154580
22.65000, 1.127079
22.68000, 2.439503
22.71000, 3.471719
22.74000, 5.643434
22.77000, 7.294383
22.80000, 7.691197
22.83000, 10.64628
22.86000, 14.48838
22.89000, 15.05019
22.92000, 18.99313
22.95000, 27.49829
22.98000, 36.57071
23.01000, 48.34582
23.04000, 61.13147
23.07000, 74.54882
23.10000, 91.73219
23.13000, 111.7146
23.16000, 128.3986
23.19000, 145.8377
23.22000, 156.4343
23.25000, 162.3433
23.28000, 164.7268
23.31000, 160.8672
23.34000, 151.2106
23.37000, 140.2422
23.40000, 124.6366
23.43000, 103.0600
23.46000, 84.54462
23.49000, 67.30608
23.52000, 51.96537
23.55000, 39.96966
23.58000, 29.80922
23.61000, 19.41968
23.64000, 14.11006
23.67000, 15.94810
23.70000, 14.31781
23.73000, 11.62361
23.76000, 15.06377
23.79000, 17.25324
23.82000, 17.43397
23.85000, 15.16896
23.88000, 13.06548
23.91000, 11.72959
23.94000, 9.700815
23.97000, 10.45794
24.00000, 10.44525
24.03000, 16.11886
24.06000, 22.72980
24.09000, 33.05738
24.12000, 42.51306
24.15000, 50.10690
24.18000, 58.24742
24.21000, 66.74673
24.24000, 74.06598
24.27000, 73.00968
24.30000, 68.91801
24.33000, 65.72370
24.36000, 63.67327
24.39000, 60.03376
24.42000, 56.59205
24.45000, 54.13830
24.48000, 49.10740
24.51000, 46.38640
24.54000, 42.75976
24.57000, 44.48455
24.60000, 47.97670
24.63000, 59.36126
24.66000, 77.89622
24.69000, 106.8937
24.72000, 150.5626
24.75000, 214.5859
24.78000, 301.4688
24.81000, 411.9617
24.84000, 548.3833
24.87000, 704.9437
24.90000, 883.5724
24.93000, 1071.522
24.96000, 1256.182
24.99000, 1427.683
25.02000, 1538.726
25.05000, 1624.388
25.08000, 1664.742
25.11000, 1659.228
25.14000, 1606.992
25.17000, 1509.558
25.20000, 1359.495
25.23000, 1189.431
25.26000, 997.4479
25.29000, 816.5328
25.32000, 641.8728
25.35000, 488.2914
25.38000, 366.8264
25.41000, 269.2493
25.44000, 206.9502
25.47000, 161.5718
25.50000, 135.2873
25.53000, 121.1684
25.56000, 111.9151
25.59000, 109.4952
25.62000, 109.4840
25.65000, 104.3186
25.68000, 101.7938
25.71000, 101.6181
25.74000, 99.79613
25.77000, 96.79738
25.80000, 90.96252
25.83000, 85.10685
25.86000, 82.69431
25.89000, 83.76307
25.92000, 88.59042
25.95000, 95.46357
25.98000, 108.8779
26.01000, 127.0617
26.04000, 142.3520
26.07000, 155.6005
26.10000, 169.9291
26.13000, 182.3062
26.16000, 192.9117
26.19000, 201.0720
26.22000, 206.8207
26.25000, 206.2922
26.28000, 203.0557
26.31000, 192.3996
26.34000, 173.0237
26.37000, 147.9685
26.40000, 124.3129
26.43000, 101.5350
26.46000, 82.31194
26.49000, 66.33785
26.52000, 55.65789
26.55000, 46.26435
26.58000, 40.60579
26.61000, 34.04757
26.64000, 28.88666
26.67000, 30.05161
26.70000, 29.85468
26.73000, 29.70166
26.76000, 31.88672
26.79000, 30.39585
26.82000, 29.91859
26.85000, 33.76440
26.88000, 38.95753
26.91000, 40.72819
26.94000, 48.36502
26.97000, 61.32048
27.00000, 76.76477
27.03000, 96.24910
27.06000, 121.2303
27.09000, 150.6970
27.12000, 182.8038
27.15000, 213.4070
27.18000, 241.9900
27.21000, 261.6926
27.24000, 278.7379
27.27000, 287.7954
27.30000, 289.5682
27.33000, 289.4720
27.36000, 278.9690
27.39000, 253.9726
27.42000, 229.3536
27.45000, 202.0398
27.48000, 164.3949
27.51000, 129.8898
27.54000, 102.3592
27.57000, 73.89355
27.60000, 54.24660
27.63000, 39.68133
27.66000, 23.36172
27.69000, 12.97066
27.72000, 7.707232
27.75000, 2.560251
27.78000, 1.207890
27.81000, 8.0216996E-02
27.84000, 3.760356
27.87000, 10.28110
27.90000, 14.61071
27.93000, 22.19092
27.96000, 31.75175
27.99000, 38.68518
28.02000, 48.07010
28.05000, 63.17860
28.08000, 87.28354
28.11000, 122.3489
28.14000, 160.8335
28.17000, 202.0394
28.20000, 238.4158
28.23000, 267.3784
28.26000, 293.4215
28.29000, 319.3558
28.32000, 334.3821
28.35000, 337.9450
28.38000, 335.5681
28.41000, 325.0863
28.44000, 309.5973
28.47000, 289.9630
28.50000, 260.7299
28.53000, 227.2465
28.56000, 190.9090
28.59000, 160.0285
28.62000, 136.4250
28.65000, 116.1195
28.68000, 95.29169
28.71000, 77.51093
28.74000, 60.72729
28.77000, 48.25279
28.80000, 42.66637
28.83000, 38.50646
28.86000, 35.40685
28.89000, 32.47075
28.92000, 27.01469
28.95000, 21.02744
28.98000, 14.76068
29.01000, 10.88543
29.04000, 7.219427
29.07000, 5.322607
29.10000, 3.304484
29.13000, 4.428799
29.16000, 3.617169
29.19000, 1.944616
29.22000, 2.200840
29.25000, 1.613762
29.28000, 1.302393
29.31000, 1.682791
29.34000, 2.612930
29.37000, 2.636370
29.40000, 1.454834
29.43000, 2.066094
29.46000, 2.615409
29.49000, 1.312275
29.52000, 7.1125999E-02
29.55000, 2.570563
29.58000, 2.466535
29.61000, 2.853722
29.64000, 2.345969
29.67000, 1.051088
29.70000, 0.8800830
29.73000, 1.697006
29.76000, 1.626095
29.79000, 2.290126
29.82000, 2.180756
29.85000, 2.055870
29.88000, 2.145660
29.91000, 1.717979
29.94000, 7.801387
29.97000, 11.69058
30.00000, 13.42253
30.03000, 16.23421
30.06000, 19.26862
30.09000, 22.85576
30.12000, 24.18663
30.15000, 20.25721
30.18000, 18.41448
30.21000, 18.51242
30.24000, 17.72503
30.27000, 14.62630
30.30000, 9.909210
30.33000, 3.569767
30.36000, 0.3599540
30.39000, 0.9273060
30.42000, 0.6011650
30.45000, 0.6696790
30.48000, 1.540132
30.51000, 1.147191
30.54000, 2.416946
30.57000, 0.3472510
30.60000, 0.7810250
30.63000, 0.8084830
30.66000, 0.4615020
30.69000, 0.6510470
30.72000, 0.3994180
30.75000, 0.7376330
30.78000, 0.5174060
30.81000, 0.5382540
30.84000, 0.8966430
30.87000, 1.077473
30.90000, 0.9470510
30.93000, 6.6249996E-02
30.96000, 0.4899170
30.99000, 0.3576540
31.02000, 0.5361740
31.05000, 1.003185
31.08000, 3.454443
31.11000, 5.500064
31.14000, 8.021349
31.17000, 9.551390
31.20000, 12.51705
31.23000, 14.28706
31.26000, 16.26138
31.29000, 18.50302
31.32000, 17.37692
31.35000, 13.22313
31.38000, 12.07761
31.41000, 11.17990
31.44000, 11.23501
31.47000, 12.50839
31.50000, 13.32699
31.53000, 13.93740
31.56000, 15.16772
31.59000, 13.80080
31.62000, 10.19145
31.65000, 9.338280
31.68000, 9.355294
31.71000, 9.750450
31.74000, 8.840777
31.77000, 5.550257
31.80000, 4.026882
31.83000, 2.476658
31.86000, 1.887525
31.89000, 2.443435
31.92000, 1.086437
31.95000, 0.4990260
31.98000, 1.892818
32.01000, 2.166245
32.04000, 1.873425
32.07000, 0.1566690
32.10000, 0.9536530
32.13000, 1.070771
32.16000, 0.4017100
32.19000, 0.2797260
32.22000, 4.1909002E-02
32.25000, 6.298780
32.28000, 6.352753
32.31000, 7.252825
32.34000, 9.724999
32.37000, 7.774255
32.40000, 4.139607
32.43000, 1.246024
32.46000, 0.2282000
32.49000, 1.440444
32.52000, 2.396488
32.55000, 1.083517
32.58000, 0.8661680
32.61000, 0.5183310
32.64000, 1.130560
32.67000, 4.688070
32.70000, 8.626527
32.73000, 11.08684
32.76000, 15.38990
32.79000, 22.06553
32.82000, 28.59274
32.85000, 36.54970
32.88000, 44.59966
32.91000, 55.98554
32.94000, 71.14217
32.97000, 85.21705
33.00000, 104.2280
33.03000, 121.0920
33.06000, 130.2421
33.09000, 134.2420
33.12000, 136.6804
33.15000, 139.4775
33.18000, 135.2749
33.21000, 131.2676
33.24000, 127.4109
33.27000, 117.4989
33.30000, 107.8887
33.33000, 99.27560
33.36000, 87.77969
33.39000, 74.98913
33.42000, 60.15971
33.45000, 51.21377
33.48000, 44.34141
33.51000, 36.51271
33.54000, 31.87106
33.57000, 34.08046
33.60000, 39.19190
33.63000, 36.73540
33.66000, 35.96490
33.69000, 43.07946
33.72000, 57.08606
33.75000, 74.70475
33.78000, 94.67744
33.81000, 113.4592
33.84000, 136.3600
33.87000, 166.4209
33.90000, 191.1328
33.93000, 213.7948
33.96000, 228.0273
33.99000, 241.4217
34.02000, 242.9816
34.05000, 244.3433
34.08000, 239.1753
34.11000, 233.6237
34.14000, 224.4314
34.17000, 211.9272
34.20000, 196.1028
34.23000, 172.2695
34.26000, 146.2453
34.29000, 121.0559
34.32000, 99.04263
34.35000, 81.17348
34.38000, 66.67364
34.41000, 58.04885
34.44000, 51.70401
34.47000, 49.43744
34.50000, 49.47882
34.53000, 49.52510
34.56000, 52.99463
34.59000, 61.34493
34.62000, 70.34589
34.65000, 80.67030
34.68000, 91.46983
34.71000, 102.9767
34.74000, 113.1639
34.77000, 125.7993
34.80000, 135.6832
34.83000, 139.5633
34.86000, 141.9968
34.89000, 141.8986
34.92000, 135.6658
34.95000, 126.1163
34.98000, 121.2761
35.01000, 115.9735
35.04000, 108.0171
35.07000, 98.56500
35.10000, 89.07959
35.13000, 75.76515
35.16000, 65.03728
35.19000, 52.79720
35.22000, 41.52592
35.25000, 32.64302
35.28000, 29.42348
35.31000, 27.66529
35.34000, 25.74450
35.37000, 26.45308
35.40000, 27.09220
35.43000, 29.97305
35.46000, 32.78437
35.49000, 34.54261
35.52000, 41.00062
35.55000, 47.05711
35.58000, 52.05344
35.61000, 55.66425
35.64000, 59.84594
35.67000, 62.03859
35.70000, 63.53061
35.73000, 66.57841
35.76000, 66.10686
35.79000, 62.47000
35.82000, 58.21388
35.85000, 53.28280
35.88000, 47.20728
35.91000, 41.75034
35.94000, 37.68097
35.97000, 30.89318
36.00000, 23.27056
36.03000, 18.27832
36.06000, 14.75026
36.09000, 11.86583
36.12000, 9.488256
36.15000, 7.534857
36.18000, 4.019608
36.21000, 0.3331820
36.24000, 1.865378
36.27000, 1.115883
36.30000, 8.5286997E-02
36.33000, 0.3920920
36.36000, 1.049233
36.39000, 1.497498
36.42000, 0.3911780
36.45000, 1.135088
36.48000, 0.7371130
36.51000, 1.498897
36.54000, 0.9868370
36.57000, 1.580420
36.60000, 0.5987740
36.63000, 0.5784120
36.66000, 1.256309
36.69000, 8.2700001E-03
36.72000, 9.2729002E-02
36.75000, 0.2178170
36.78000, 1.461385
36.81000, 1.686436
36.84000, 0.1055200
36.87000, 2.943096
36.90000, 5.325253
36.93000, 8.314867
36.96000, 11.51696
36.99000, 14.04858
37.02000, 17.08272
37.05000, 25.13305
37.08000, 34.12853
37.11000, 45.11713
37.14000, 60.09660
37.17000, 74.98895
37.20000, 92.91917
37.23000, 110.5512
37.26000, 124.9303
37.29000, 135.8901
37.32000, 138.4973
37.35000, 142.2447
37.38000, 148.6354
37.41000, 146.2640
37.44000, 144.4776
37.47000, 141.6735
37.50000, 134.6306
37.53000, 126.9360
37.56000, 119.9228
37.59000, 107.8375
37.62000, 92.09611
37.65000, 81.37885
37.68000, 71.34760
37.71000, 63.12787
37.74000, 56.07797
37.77000, 50.45993
37.80000, 46.07159
37.83000, 43.71023
37.86000, 42.29122
37.89000, 42.91095
37.92000, 41.29042
37.95000, 41.76470
37.98000, 42.31518
38.01000, 38.02341
38.04000, 33.50723
38.07000, 32.58376
38.10000, 27.25095
38.13000, 21.72594
38.16000, 19.01472
38.19000, 15.14732
38.22000, 13.32373
38.25000, 13.25030
38.28000, 11.27999
38.31000, 8.164838
38.34000, 5.886804
38.37000, 1.689925
38.40000, 3.511186
38.43000, 6.534625
38.46000, 3.462207
38.49000, 3.123949
38.52000, 3.560876
38.55000, 1.512962
38.58000, 0.4947660
38.61000, 0.3954100
38.64000, 0.2887770
38.67000, 1.915540
38.70000, 0.8402200
38.73000, 0.1253100
38.76000, 1.467310
38.79000, 1.289568
38.82000, 3.083666
38.85000, 1.691968
38.88000, 1.492508
38.91000, 4.290281
38.94000, 3.156475
38.97000, 5.916488
39.00000, 3.966329
39.03000, 5.094570
39.06000, 5.927810
39.09000, 5.816667
39.12000, 8.134301
39.15000, 9.356345
39.18000, 11.62244
39.21000, 14.46935
39.24000, 18.41090
39.27000, 23.48945
39.30000, 30.43038
39.33000, 42.62171
39.36000, 53.98968
39.39000, 70.39972
39.42000, 87.40253
39.45000, 111.3657
39.48000, 146.6620
39.51000, 190.7638
39.54000, 237.3868
39.57000, 285.7480
39.60000, 332.5216
39.63000, 379.3727
39.66000, 408.8706
39.69000, 425.9339
39.72000, 426.4736
39.75000, 415.0359
39.78000, 405.5076
39.81000, 393.0153
39.84000, 378.4840
39.87000, 361.3830
39.90000, 344.8756
39.93000, 329.0200
39.96000, 311.4149
39.99000, 280.7908
40.02000, 243.2908
40.05000, 207.4427
40.08000, 166.2148
40.11000, 123.8249
40.14000, 91.37723
40.17000, 67.34671
40.20000, 52.80736
40.23000, 41.33218
40.26000, 34.63158
40.29000, 31.08085
40.32000, 27.50694
40.35000, 24.06351
40.38000, 20.95497
40.41000, 16.16036
40.44000, 9.353189
40.47000, 6.805536
40.50000, 5.024406
40.53000, 2.743806
40.56000, 2.812711
40.59000, 2.219133
40.62000, 0.3931280
40.65000, 1.290795
40.68000, 0.1243100
40.71000, 2.441895
40.74000, 3.788996
40.77000, 5.394611
40.80000, 6.180727
40.83000, 8.115347
40.86000, 11.98049
40.89000, 17.14272
40.92000, 24.23811
40.95000, 35.84488
40.98000, 42.87901
41.01000, 53.54200
41.04000, 66.28834
41.07000, 73.94563
41.10000, 81.20911
41.13000, 88.30765
41.16000, 95.82153
41.19000, 96.13007
41.22000, 102.1114
41.25000, 93.48046
41.28000, 87.33495
41.31000, 81.98402
41.34000, 77.38348
41.37000, 74.20717
41.40000, 69.94525
41.43000, 66.35622
41.46000, 65.25220
41.49000, 61.80840
41.52000, 57.68378
41.55000, 47.52523
41.58000, 35.46335
41.61000, 30.18986
41.64000, 27.17372
41.67000, 24.95994
41.70000, 26.21850
41.73000, 31.29544
41.76000, 38.28672
41.79000, 47.47434
41.82000, 56.70431
41.85000, 67.50661
41.88000, 75.00626
41.91000, 79.31526
41.94000, 84.10258
41.97000, 83.97427
42.00000, 82.49325
42.03000, 78.67664
42.06000, 74.11530
42.09000, 77.84532
42.12000, 78.00367
42.15000, 74.82035
42.18000, 68.15128
42.21000, 61.49060
42.24000, 56.52732
42.27000, 47.58012
42.30000, 38.61559
42.33000, 31.13718
42.36000, 24.88775
42.39000, 18.71119
42.42000, 14.01598
42.45000, 8.315119
42.48000, 3.717640
42.51000, 1.903517
42.54000, 0.3742420
42.57000, 1.479800
42.60000, 1.292060
42.63000, 0.8674880
42.66000, 4.5818999E-02
42.69000, 0.3372810
42.72000, 0.6727320
42.75000, 1.148034
42.78000, 0.5712570
42.81000, 0.3292780
42.84000, 1.150565
42.87000, 4.065780
42.90000, 7.138463
42.93000, 14.44648
42.96000, 19.77155
42.99000, 20.31367
43.02000, 25.71642
43.05000, 33.04351
43.08000, 41.44591
43.11000, 54.68963
43.14000, 74.48271
43.17000, 94.67806
43.20000, 119.2437
43.23000, 145.5367
43.26000, 170.2181
43.29000, 202.0788
43.32000, 224.3667
43.35000, 240.9790
43.38000, 249.0245
43.41000, 244.5834
43.44000, 235.2515
43.47000, 222.0211
43.50000, 206.9562
43.53000, 197.1107
43.56000, 190.3152
43.59000, 184.2742
43.62000, 177.5634
43.65000, 165.8727
43.68000, 155.3058
43.71000, 138.4873
43.74000, 116.1288
43.77000, 91.66319
43.80000, 73.46476
43.83000, 57.12547
43.86000, 42.58661
43.89000, 31.05845
43.92000, 21.16893
43.95000, 14.46515
43.98000, 8.631021
44.01000, 6.379633
44.04000, 6.204478
44.07000, 6.473584
44.10000, 10.31394
44.13000, 13.67752
44.16000, 6.614349
44.19000, 1.152575
44.22000, 0.4003230
44.25000, 0.5644220
44.28000, 1.621117
44.31000, 1.934051
44.34000, 2.127823
44.37000, 1.064631
44.40000, 1.331250
44.43000, 0.3011100
44.46000, 1.086805
44.49000, 0.5032550
44.52000, 1.124376
44.55000, 0.3236680
44.58000, 0.1716920
44.61000, 2.9617000E-02
44.64000, 0.6148800
44.67000, 0.7195820
44.70000, 0.5536000
44.73000, 1.115466
44.76000, 0.6086570
44.79000, 0.2692650
44.82000, 0.8513420
44.85000, 0.7138740
44.88000, 4.430232
44.91000, 2.345456
44.94000, 1.677471
44.97000, 0.6779320
45.00000, 0.7344060
45.03000, 0.7459690
45.06000, 0.2529630
45.09000, 1.041673
45.12000, 0.2080890
45.15000, 1.500952
45.18000, 1.831114
45.21000, 0.7073100
45.24000, 3.626525
45.27000, 7.335770
45.30000, 12.52405
45.33000, 18.66834
45.36000, 22.08735
45.39000, 28.52999
45.42000, 29.07134
45.45000, 34.68772
45.48000, 35.95708
45.51000, 35.51347
45.54000, 35.62886
45.57000, 33.08125
45.60000, 31.88165
45.63000, 32.68106
45.66000, 34.27444
45.69000, 40.37682
45.72000, 43.51922
45.75000, 42.29458
45.78000, 39.20009
45.81000, 34.49757
45.84000, 30.76002
45.87000, 29.37605
45.90000, 28.16578
45.93000, 29.21302
45.96000, 32.15662
45.99000, 36.64922
46.02000, 42.08625
46.05000, 49.41014
46.08000, 55.40146
46.11000, 61.88190
46.14000, 65.87878
46.17000, 60.43025
46.20000, 53.72457
46.23000, 45.99061
46.26000, 43.26719
46.29000, 42.75582
46.32000, 42.28033
46.35000, 42.95792
46.38000, 47.58873
46.41000, 48.63957
46.44000, 45.80023
46.47000, 44.72683
46.50000, 42.76739
46.53000, 36.77134
46.56000, 31.25103
46.59000, 26.82935
46.62000, 22.61853
46.65000, 20.22811
46.68000, 18.46083
46.71000, 16.27946
46.74000, 17.66696
46.77000, 21.23335
46.80000, 23.82462
46.83000, 21.29978
46.86000, 20.54680
46.89000, 18.73770
46.92000, 13.13245
46.95000, 12.22408
46.98000, 14.05405
47.01000, 14.02931
47.04000, 16.44749
47.07000, 20.81467
47.10000, 20.74518
47.13000, 22.21428
47.16000, 25.46469
47.19000, 25.63893
47.22000, 25.96500
47.25000, 26.73086
47.28000, 27.13455
47.31000, 30.80503
47.34000, 36.43232
47.37000, 44.57338
47.40000, 53.39222
47.43000, 58.86485
47.46000, 60.52634
47.49000, 58.14607
47.52000, 59.30588
47.55000, 61.38744
47.58000, 60.10977
47.61000, 56.89380
47.64000, 53.71257
47.67000, 52.38650
47.70000, 48.73000
47.73000, 49.16303
47.76000, 48.73639
47.79000, 47.61343
47.82000, 43.63346
47.85000, 41.11066
47.88000, 35.24157
47.91000, 25.14118
47.94000, 20.62500
47.97000, 12.49753
48.00000, 9.675771
48.03000, 5.584205
48.06000, 1.418681
48.09000, 0.1285090
48.12000, 0.1921910
48.15000, 2.446865
48.18000, 0.8950230
48.21000, 2.302193
48.24000, 0.7432480
48.27000, 1.291578
48.30000, 1.110111
48.33000, 1.385499
48.36000, 0.4683660
48.39000, 1.929957
48.42000, 2.422610
48.45000, 4.080029
48.48000, 6.064040
48.51000, 8.230847
48.54000, 12.66157
48.57000, 15.05013
48.60000, 19.53001
48.63000, 26.91903
48.66000, 34.97805
48.69000, 42.34206
48.72000, 49.37219
48.75000, 54.58382
48.78000, 61.52431
48.81000, 63.82759
48.84000, 60.92373
48.87000, 56.05868
48.90000, 53.74345
48.93000, 45.45003
48.96000, 39.89244
48.99000, 37.45667
49.02000, 36.01872
49.05000, 37.39857
49.08000, 41.62321
49.11000, 46.75370
49.14000, 47.47398
49.17000, 42.57808
49.20000, 33.84700
49.23000, 28.14771
49.26000, 18.15024
49.29000, 15.22657
49.32000, 12.83369
49.35000, 10.83564
49.38000, 11.81738
49.41000, 11.93393
49.44000, 11.62826
49.47000, 14.33541
49.50000, 12.84034
49.53000, 10.01505
49.56000, 9.651563
49.59000, 6.293825
49.62000, 4.374598
49.65000, 4.931890
49.68000, 6.503651
49.71000, 3.132497
49.74000, 1.129037
49.77000, 0.4368670
49.80000, 0.5798510
49.83000, 1.393406
49.86000, 1.253341
49.89000, 1.400799
49.92000, 0.1203110
49.95000, 1.216527
49.98000, 1.924018
50.01000, 4.891518
50.04000, 5.536590
50.07000, 1.647082
50.10000, 1.195213
50.13000, 0.5038880
50.16000, 0.6406540
50.19000, 1.881699
50.22000, 2.541144
50.25000, 2.467245
50.28000, 5.270798
50.31000, 4.938147
50.34000, 10.40617
50.37000, 7.336393
50.40000, 7.748274
50.43000, 11.93486
50.46000, 18.20512
50.49000, 23.76508
50.52000, 27.99372
50.55000, 31.07142
50.58000, 37.12400
50.61000, 38.59764
50.64000, 46.96424
50.67000, 52.94456
50.70000, 56.49872
50.73000, 54.81985
50.76000, 54.65186
50.79000, 51.19849
50.82000, 46.20377
50.85000, 42.13871
50.88000, 43.61531
50.91000, 44.18456
50.94000, 44.49045
50.97000, 47.48498
51.00000, 46.27820
51.03000, 44.88000
51.06000, 47.72722
51.09000, 49.80857
51.12000, 48.91846
51.15000, 45.22894
51.18000, 39.57705
51.21000, 40.25480
51.24000, 42.02431
51.27000, 43.77089
51.30000, 42.78710
51.33000, 44.10680
51.36000, 44.27186
51.39000, 42.30797
51.42000, 38.49473
51.45000, 35.73815
51.48000, 33.98817
51.51000, 34.09007
51.54000, 33.17963
51.57000, 33.73701
51.60000, 34.71270
51.63000, 36.02182
51.66000, 39.40091
51.69000, 41.87629
51.72000, 42.08594
51.75000, 38.00983
51.78000, 33.63129
51.81000, 30.10598
51.84000, 28.50303
51.87000, 25.59719
51.90000, 27.13146
51.93000, 31.57586
51.96000, 33.43850
51.99000, 33.96737
52.02000, 37.20933
52.05000, 35.65554
52.08000, 31.20007
52.11000, 26.03530
52.14000, 23.43577
52.17000, 25.36533
52.20000, 28.04664
52.23000, 31.21716
52.26000, 32.11824
52.29000, 30.00359
52.32000, 27.11467
52.35000, 25.05421
52.38000, 22.81880
52.41000, 20.77518
52.44000, 19.96130
52.47000, 20.73319
52.50000, 24.11585
52.53000, 26.59729
52.56000, 25.51649
52.59000, 25.91645
52.62000, 26.77920
52.65000, 26.43373
52.68000, 27.08802
52.71000, 24.61910
52.74000, 25.28494
52.77000, 21.51557
52.80000, 14.43898
52.83000, 11.95916
52.86000, 13.38112
52.89000, 15.77587
52.92000, 17.19342
52.95000, 18.14875
52.98000, 22.32384
53.01000, 24.74673
53.04000, 19.92645
53.07000, 13.97893
53.10000, 6.951213
53.13000, 2.214801
53.16000, 0.7537020
53.19000, 2.069600
53.22000, 0.3313090
53.25000, 3.045541
53.28000, 0.7815720
53.31000, 2.186292
53.34000, 2.774879
53.37000, 1.484294
53.40000, 2.364144
53.43000, 0.6271130
53.46000, 0.7443580
53.49000, 9.0572998E-02
53.52000, 0.9071490
53.55000, 0.7307200
53.58000, 1.069938
53.61000, 1.490050
53.64000, 0.3362170
53.67000, 1.841013
53.70000, 0.3129940
53.73000, 0.4527620
53.76000, 0.1581360
53.79000, 0.2499780
53.82000, 0.7424030
53.85000, 0.8100670
53.88000, 1.974051
53.91000, 4.854555
53.94000, 6.024477
53.97000, 7.383311
54.00000, 7.709078
54.03000, 7.263772
54.06000, 3.525788
54.09000, 2.420549
54.12000, 1.220761
54.15000, 0.8474340
54.18000, 6.9507003E-02
54.21000, 0.2758150
54.24000, 0.3156780
54.27000, 1.391272
54.30000, 1.202538
54.33000, 3.889251
54.36000, 5.410399
54.39000, 2.127221
54.42000, 1.821615
54.45000, 1.547482
54.48000, 2.536132
54.51000, 0.5138540
54.54000, 1.226261
54.57000, 0.5741560
54.60000, 0.1958320
54.63000, 1.235935
54.66000, 0.9525290
54.69000, 0.2606220
54.72000, 0.7724690
54.75000, 0.7491260
54.78000, 0.3854940
54.81000, 0.1670220
54.84000, 1.112130
54.87000, 0.3756970
54.90000, 0.9321290
54.93000, 1.389647
54.96000, 1.214690
54.99000, 0.6204540
55.02000, 3.734256
55.05000, 0.7687150
55.08000, 1.326778
55.11000, 2.335790
55.14000, 3.262208
55.17000, 0.3331270
55.20000, 1.418883
55.23000, 3.547854
55.26000, 2.838361
55.29000, 5.284674
55.32000, 5.709897
55.35000, 3.846361
55.38000, 5.657297
55.41000, 6.316442
55.44000, 8.589129
55.47000, 9.842601
55.50000, 14.47363
55.53000, 17.38032
55.56000, 19.50007
55.59000, 18.96589
55.62000, 18.83077
55.65000, 18.60271
55.68000, 18.17970
55.71000, 20.81990
55.74000, 22.45439
55.77000, 24.89282
55.80000, 23.74317
55.83000, 22.48823
55.86000, 22.00808
55.89000, 24.57509
55.92000, 25.48395
55.95000, 29.23392
55.98000, 33.21024
56.01000, 40.93856
56.04000, 47.02192
56.07000, 48.99929
56.10000, 52.80166
56.13000, 58.26509
56.16000, 59.21855
56.19000, 59.15306
56.22000, 56.46959
56.25000, 55.12317
56.28000, 55.34080
56.31000, 45.80748
56.34000, 40.49223
56.37000, 39.41604
56.40000, 38.35091
56.43000, 42.04885
56.46000, 49.04288
56.49000, 55.34895
56.52000, 57.43414
56.55000, 59.20353
56.58000, 56.81506
56.61000, 58.11784
56.64000, 57.40921
56.67000, 55.78171
56.70000, 56.18237
56.73000, 51.64778
56.76000, 50.17836
56.79000, 45.54303
56.82000, 45.10872
56.85000, 38.62362
56.88000, 36.25949
56.91000, 30.08809
56.94000, 25.19294
56.97000, 22.55010
57.00000, 19.03876
57.03000, 23.73283
57.06000, 26.10326
57.09000, 27.32173
57.12000, 32.02894
57.15000, 36.31959
57.18000, 38.06282
57.21000, 43.51648
57.24000, 45.56898
57.27000, 43.86699
57.30000, 41.95568
57.33000, 38.98816
57.36000, 36.58554
57.39000, 33.30806
57.42000, 30.61486
57.45000, 26.63062
57.48000, 23.08276
57.51000, 19.80924
57.54000, 17.72906
57.57000, 16.89523
57.60000, 19.33573
57.63000, 19.73962
57.66000, 24.60385
57.69000, 26.76841
57.72000, 28.19701
57.75000, 25.04611
57.78000, 20.96197
57.81000, 18.01659
57.84000, 17.23248
57.87000, 15.32137
57.90000, 13.75502
57.93000, 10.66246
57.96000, 9.577327
57.99000, 8.864732
58.02000, 6.671617
58.05000, 7.456054
58.08000, 6.604864
58.11000, 3.731444
58.14000, 2.702718
58.17000, 3.574281
58.20000, 5.586007
58.23000, 6.968070
58.26000, 7.213095
58.29000, 6.890661
58.32000, 9.014761
58.35000, 12.14734
58.38000, 14.57339
58.41000, 23.32183
58.44000, 27.62131
58.47000, 32.58633
58.50000, 34.95975
58.53000, 38.90844
58.56000, 34.51139
58.59000, 33.79698
58.62000, 28.60206
58.65000, 23.03182
58.68000, 22.59349
58.71000, 23.10581
58.74000, 21.22206
58.77000, 23.30442
58.80000, 24.32026
58.83000, 26.70259
58.86000, 28.04342
58.89000, 26.38974
58.92000, 25.54656
58.95000, 25.11292
58.98000, 20.86375
59.01000, 18.77111
59.04000, 17.41998
59.07000, 15.98934
59.10000, 11.91922
59.13000, 7.751606
59.16000, 4.100909
59.19000, 1.919236
59.22000, 0.4312400
59.25000, 0.4952870
59.28000, 2.984282
59.31000, 3.325062
59.34000, 2.978955
59.37000, 2.191023
59.40000, 4.443985
59.43000, 3.560240
59.46000, 0.4485540
59.49000, 2.866138
59.52000, 1.447798
59.55000, 1.040985
59.58000, 3.414804
59.61000, 4.428368
59.64000, 5.113065
59.67000, 7.991608
59.70000, 7.840766
59.73000, 9.740494
59.76000, 11.07985
59.79000, 11.63130
59.82000, 13.39801
59.85000, 12.79200
59.88000, 13.28657
59.91000, 12.65173
59.94000, 18.77248
59.97000, 22.31284
60.00000, 24.04177
60.03000, 31.28231
60.06000, 39.90646
60.09000, 55.07722
60.12000, 73.11036
60.15000, 81.55779
60.18000, 87.21066
60.21000, 93.01682
60.24000, 95.54220
60.27000, 97.17700
60.30000, 91.70260
60.33000, 84.14121
60.36000, 73.81723
60.39000, 61.88632
60.42000, 54.65562
60.45000, 53.48096
60.48000, 51.78656
60.51000, 57.96807
60.54000, 63.93950
60.57000, 66.63419
60.60000, 75.67729
60.63000, 79.07098
60.66000, 79.17194
60.69000, 72.81357
60.72000, 61.19584
60.75000, 49.26540
60.78000, 36.88142
60.81000, 29.54086
60.84000, 21.80233
60.87000, 16.11329
60.90000, 13.43177
60.93000, 9.151219
60.96000, 7.525886
60.99000, 9.781779
61.02000, 7.087677
61.05000, 7.367910
61.08000, 10.94309
61.11000, 9.699953
61.14000, 2.522540
61.17000, 2.473282
61.20000, 7.618196
61.23000, 13.43728
61.26000, 19.19302
61.29000, 19.75520
61.32000, 23.40136
61.35000, 21.40746
61.38000, 20.39657
61.41000, 18.56259
61.44000, 17.57821
61.47000, 15.00586
61.50000, 12.45183
61.53000, 12.94897
61.56000, 12.50749
61.59000, 12.76689
61.62000, 15.26315
61.65000, 14.79929
61.68000, 12.81106
61.71000, 11.28591
61.74000, 13.68970
61.77000, 20.95853
61.80000, 28.53797
61.83000, 33.95809
61.86000, 36.02409
61.89000, 35.43118
61.92000, 34.93951
61.95000, 30.13516
61.98000, 26.47311
62.01000, 24.08043
62.04000, 18.57711
62.07000, 16.94818
62.10000, 14.89164
62.13000, 10.43661
62.16000, 9.280313
62.19000, 7.579433
62.22000, 9.477442
62.25000, 15.50109
62.28000, 15.43239
62.31000, 15.50600
62.34000, 16.95604
62.37000, 14.06093
62.40000, 11.18507
62.43000, 8.496728
62.46000, 6.461322
62.49000, 7.616171
62.52000, 10.15099
62.55000, 6.840770
62.58000, 5.121942
62.61000, 11.72399
62.64000, 11.18685
62.67000, 8.383771
62.70000, 11.40849
62.73000, 12.55206
62.76000, 11.63286
62.79000, 11.40942
62.82000, 13.12177
62.85000, 14.43575
62.88000, 15.26617
62.91000, 18.75134
62.94000, 21.11525
62.97000, 21.24335
63.00000, 23.90956
63.03000, 24.29325
63.06000, 29.65666
63.09000, 24.34041
63.12000, 22.60970
63.15000, 19.91962
63.18000, 12.31601
63.21000, 7.948899
63.24000, 7.744082
63.27000, 8.363384
63.30000, 11.16739
63.33000, 13.41643
63.36000, 15.00611
63.39000, 17.64280
63.42000, 19.34646
63.45000, 21.04100
63.48000, 19.94131
63.51000, 13.71919
63.54000, 10.72263
63.57000, 9.137724
63.60000, 4.408557
63.63000, 4.051818
63.66000, 2.311587
63.69000, 0.3777050
63.72000, 0.6246130
63.75000, 0.6314070
63.78000, 0.4870680
63.81000, 2.457921
63.84000, 4.147048
63.87000, 5.160710
63.90000, 5.358428
63.93000, 4.948775
63.96000, 3.639281
63.99000, 0.7800650
64.02000, 0.1760320
64.05000, 4.356456
64.08000, 1.724481
64.11000, 0.7729420
64.14000, 1.426783
64.17000, 0.9961650
64.20000, 0.7372380
64.23000, 0.5610450
64.26000, 6.246287
64.29000, 8.202226
64.32000, 4.952605
64.35000, 0.4639630
64.38000, 0.7634350
64.41000, 1.361181
64.44000, 6.715046
64.47000, 12.16473
64.50000, 14.87980
64.53000, 12.84831
64.56000, 13.51582
64.59000, 14.72070
64.62000, 15.95642
64.65000, 15.18839
64.68000, 12.37847
64.71000, 12.30639
64.74000, 9.046791
64.77000, 3.761955
64.80000, 6.995533
64.83000, 8.128344
64.86000, 2.602747
64.89000, 0.2666080
64.92000, 1.327365
64.95000, 5.554359
64.98000, 11.04786
65.01000, 12.81505
65.04000, 11.42674
65.07000, 6.187914
65.10000, 0.0000000E+00
##END=



