##NAMES=Rasvumite
##RRUFFID=R060491
##IDEAL CHEMISTRY=KFe^2+^Fe^3+^S^2-^_3_
##LOCALITY=Coyote Peak, Humboldt County, California, USA
##OWNER=RRUFF
##SOURCE=Michael Scott
##DESCRIPTION=Parallel aggregates of brownish-red fibers, associated with phlogopite, andradite, augite, pyrrhotite, magnetite, sulphur, and apatite. The sample profile under the red laser matches sulphur
##DIFFRACTION SAMPLE DESCRIPTION=Powder, using Mo radiation
##STATUS=The identification of this mineral has been confirmed by X-ray diffraction.
##URL=rruff.info/R060491
##CELL PARAMETERS=a: 9.08(3) b: 11.08(1) c: 5.449(2) alpha: 90 beta: 90 gamma: 90 volume: 540(2) crystal system: orthorhombic
5.240000, 0.0000000E+00
5.260000, 7.022827
5.280000, 9.491211
5.300000, 1.319702
5.320000, 1.782837
5.340000, 1.293152
5.360000, 2.650452
5.380000, 7.450562
5.400000, 12.84045
5.420000, 20.11517
5.440000, 39.36292
5.460000, 71.19745
5.480000, 110.6761
5.500000, 159.4556
5.520000, 206.5913
5.540000, 268.2769
5.560000, 339.8417
5.580000, 436.6989
5.600000, 543.8846
5.620000, 641.7642
5.640000, 731.9810
5.660000, 813.1332
5.680000, 885.5137
5.700000, 951.1227
5.720000, 1004.863
5.740000, 1045.661
5.760000, 1066.975
5.780000, 1072.735
5.800000, 1068.814
5.820000, 1054.474
5.840000, 1058.030
5.860000, 1050.152
5.880000, 1061.284
5.900000, 1078.189
5.920000, 1070.945
5.940000, 1057.475
5.960000, 1007.919
5.980000, 938.2131
6.000000, 842.8120
6.020000, 725.6097
6.040000, 621.3168
6.060000, 517.2665
6.080000, 422.2607
6.100000, 351.3689
6.120000, 292.7482
6.140000, 244.7802
6.160000, 202.6162
6.180000, 183.9772
6.200000, 158.6238
6.220000, 139.6370
6.240000, 127.0673
6.260000, 116.8855
6.280000, 112.6915
6.300000, 107.8663
6.320000, 98.93982
6.340000, 91.65271
6.360000, 86.44531
6.380000, 88.80774
6.400000, 88.59070
6.420000, 85.38403
6.440000, 85.60144
6.460000, 87.52136
6.480000, 88.94373
6.500000, 94.53394
6.520000, 97.23694
6.540000, 99.54541
6.560000, 106.8713
6.580000, 112.1165
6.600000, 116.8423
6.620000, 124.7899
6.640000, 136.8004
6.660000, 154.1544
6.680000, 168.2828
6.700000, 179.1582
6.720000, 184.4242
6.740000, 185.4880
6.760000, 190.9449
6.780000, 193.6412
6.800000, 202.6871
6.820000, 210.5271
6.840000, 214.6313
6.860000, 214.2245
6.880000, 207.6282
6.900000, 194.5139
6.920000, 192.6650
6.940000, 193.7350
6.960000, 189.8097
6.980000, 195.7539
7.000000, 218.3698
7.020000, 250.1006
7.040000, 282.8018
7.060000, 318.6730
7.080000, 360.2943
7.100000, 406.9952
7.120000, 482.1263
7.140000, 569.2672
7.160000, 674.8079
7.180000, 789.2681
7.200000, 909.3877
7.220000, 1028.416
7.240000, 1144.703
7.260000, 1264.468
7.280000, 1382.241
7.300000, 1500.032
7.320000, 1605.701
7.340000, 1686.008
7.360000, 1727.603
7.380000, 1737.826
7.400000, 1711.997
7.420000, 1668.386
7.440000, 1582.474
7.460000, 1484.560
7.480000, 1374.424
7.500000, 1261.846
7.520000, 1137.727
7.540000, 1003.566
7.560000, 869.1436
7.580000, 733.3396
7.600000, 599.7635
7.620000, 486.7662
7.640000, 388.1353
7.660000, 302.0773
7.680000, 233.2527
7.700000, 180.8031
7.720000, 138.5272
7.740000, 108.4438
7.760000, 86.49927
7.780000, 62.98962
7.800000, 40.39111
7.820000, 25.52124
7.840000, 22.70740
7.860000, 19.98743
7.880000, 13.40930
7.900000, 13.90161
7.920000, 16.80261
7.940000, 17.32117
7.960000, 19.28589
7.980000, 18.99609
8.000000, 12.53040
8.020000, 8.678101
8.040000, 7.248535
8.060000, 7.120728
8.080000, 4.123779
8.100000, 4.067139
8.120000, 3.630005
8.140000, 1.867798
8.160000, 2.227661
8.180000, 3.020020
8.200000, 8.025513
8.220000, 11.30542
8.240000, 14.40039
8.260000, 16.21143
8.280000, 16.05908
8.300000, 14.98352
8.320000, 17.98499
8.340000, 20.40369
8.360000, 18.99109
8.380000, 17.14648
8.400000, 16.98047
8.420000, 14.31372
8.440000, 11.49622
8.460000, 14.22778
8.480000, 15.37964
8.500000, 11.30151
8.520000, 8.359985
8.540000, 9.528442
8.560000, 5.530640
8.580000, 2.255737
8.600000, 1.836914
8.620000, 6.368286
8.640000, 13.48596
8.660000, 25.56445
8.680000, 34.70178
8.700000, 36.87219
8.720000, 38.17395
8.740000, 36.73315
8.760000, 31.84106
8.780000, 33.84143
8.800000, 40.64893
8.820000, 46.08484
8.840000, 49.73376
8.860000, 49.58533
8.880000, 45.96997
8.900000, 41.98767
8.920000, 41.51843
8.940000, 41.61243
8.960000, 45.99963
8.980000, 51.52991
9.000000, 54.95349
9.020000, 53.27026
9.040000, 54.14050
9.060000, 59.38403
9.080000, 63.88062
9.100000, 71.65808
9.120000, 77.63428
9.140000, 82.66553
9.160000, 84.91956
9.180000, 83.49658
9.200000, 79.40503
9.220000, 82.35657
9.240000, 85.29382
9.260000, 90.07593
9.280000, 92.07556
9.300000, 92.78406
9.320000, 92.45496
9.340000, 90.08020
9.360000, 84.25964
9.380000, 77.57288
9.400000, 71.25024
9.420000, 60.17188
9.440000, 55.71716
9.460000, 54.95654
9.480000, 55.37988
9.500000, 57.83704
9.520000, 62.28809
9.540000, 64.51392
9.560000, 67.90161
9.580000, 72.12415
9.600000, 73.23047
9.620000, 77.65063
9.640000, 78.58447
9.660000, 82.97217
9.680000, 85.28345
9.700000, 85.34875
9.720000, 87.01758
9.740000, 91.73022
9.760000, 95.51648
9.780000, 98.25635
9.800000, 100.0399
9.820000, 97.33728
9.840000, 96.07812
9.860000, 93.54272
9.880000, 85.14075
9.900000, 76.16260
9.920000, 66.77783
9.940000, 58.76685
9.960000, 51.44922
9.980000, 42.54529
10.00000, 28.61475
10.02000, 20.17786
10.04000, 18.37781
10.06000, 18.76489
10.08000, 16.31946
10.10000, 12.96143
10.12000, 13.14062
10.14000, 13.77661
10.16000, 10.22913
10.18000, 6.157959
10.20000, 5.532837
10.22000, 8.613770
10.24000, 13.44080
10.26000, 22.43347
10.28000, 31.09192
10.30000, 36.50623
10.32000, 39.44617
10.34000, 42.74133
10.36000, 48.81226
10.38000, 59.18860
10.40000, 69.11023
10.42000, 72.51746
10.44000, 71.75977
10.46000, 73.77734
10.48000, 74.92078
10.50000, 75.50146
10.52000, 76.07031
10.54000, 76.23120
10.56000, 75.62695
10.58000, 70.54163
10.60000, 69.98987
10.62000, 67.08923
10.64000, 62.07617
10.66000, 60.02966
10.68000, 56.43713
10.70000, 49.22961
10.72000, 44.31982
10.74000, 38.67554
10.76000, 35.15283
10.78000, 31.48108
10.80000, 22.30273
10.82000, 15.17969
10.84000, 11.05872
10.86000, 5.747681
10.88000, 1.930176
10.90000, 0.4400630
10.92000, 2.802612
10.94000, 0.1217040
10.96000, 0.4205320
10.98000, 0.2790530
11.00000, 0.7655030
11.02000, 4.201172
11.04000, 5.721924
11.06000, 8.348389
11.08000, 13.37109
11.10000, 14.94165
11.12000, 16.42053
11.14000, 13.14807
11.16000, 7.373169
11.18000, 2.754272
11.20000, 1.979614
11.22000, 7.039307
11.24000, 15.36475
11.26000, 22.96570
11.28000, 35.05261
11.30000, 44.22522
11.32000, 55.56348
11.34000, 70.31750
11.36000, 83.65735
11.38000, 101.2129
11.40000, 119.5342
11.42000, 143.7422
11.44000, 168.3137
11.46000, 201.4222
11.48000, 234.9263
11.50000, 273.3361
11.52000, 309.6814
11.54000, 350.6924
11.56000, 393.7794
11.58000, 431.5022
11.60000, 468.4507
11.62000, 503.2550
11.64000, 535.0549
11.66000, 562.0715
11.68000, 583.8833
11.70000, 608.9713
11.72000, 636.1152
11.74000, 663.5046
11.76000, 696.2606
11.78000, 733.4822
11.80000, 775.2794
11.82000, 814.2026
11.84000, 861.7019
11.86000, 911.7064
11.88000, 957.4668
11.90000, 999.3630
11.92000, 1030.045
11.94000, 1044.652
11.96000, 1039.755
11.98000, 1009.094
12.00000, 970.5280
12.02000, 916.9076
12.04000, 849.9730
12.06000, 778.6038
12.08000, 705.5500
12.10000, 634.8015
12.12000, 565.0183
12.14000, 506.3008
12.16000, 453.8186
12.18000, 401.8916
12.20000, 356.6299
12.22000, 316.5234
12.24000, 280.4023
12.26000, 251.2262
12.28000, 228.0753
12.30000, 205.9196
12.32000, 187.6289
12.34000, 174.1632
12.36000, 165.0924
12.38000, 156.7968
12.40000, 154.0360
12.42000, 152.8802
12.44000, 152.2593
12.46000, 155.5530
12.48000, 160.2916
12.50000, 167.1349
12.52000, 177.4028
12.54000, 185.5454
12.56000, 188.1125
12.58000, 194.8740
12.60000, 208.8500
12.62000, 229.1403
12.64000, 248.6049
12.66000, 267.7942
12.68000, 285.6473
12.70000, 297.0247
12.72000, 304.9161
12.74000, 315.3219
12.76000, 327.1318
12.78000, 344.2054
12.80000, 356.4731
12.82000, 368.4349
12.84000, 383.7605
12.86000, 397.2753
12.88000, 410.0990
12.90000, 426.0394
12.92000, 436.3439
12.94000, 444.5778
12.96000, 445.7034
12.98000, 441.4543
13.00000, 433.6450
13.02000, 424.6552
13.04000, 406.3644
13.06000, 384.6923
13.08000, 358.4301
13.10000, 332.6842
13.12000, 308.5327
13.14000, 288.6536
13.16000, 264.5149
13.18000, 243.5847
13.20000, 226.8337
13.22000, 211.7756
13.24000, 198.9562
13.26000, 191.6656
13.28000, 192.2546
13.30000, 193.9690
13.32000, 202.8116
13.34000, 215.9758
13.36000, 220.4009
13.38000, 224.1460
13.40000, 229.9615
13.42000, 238.6504
13.44000, 250.6584
13.46000, 272.6569
13.48000, 307.9412
13.50000, 351.0625
13.52000, 406.8146
13.54000, 475.9668
13.56000, 555.4152
13.58000, 651.3344
13.60000, 755.6423
13.62000, 884.0048
13.64000, 1025.922
13.66000, 1187.993
13.68000, 1359.589
13.70000, 1538.418
13.72000, 1730.530
13.74000, 1897.394
13.76000, 2074.471
13.78000, 2221.450
13.80000, 2355.970
13.82000, 2460.541
13.84000, 2512.882
13.86000, 2528.934
13.88000, 2514.167
13.90000, 2463.908
13.92000, 2397.091
13.94000, 2288.204
13.96000, 2171.517
13.98000, 2032.591
14.00000, 1889.446
14.02000, 1751.620
14.04000, 1610.905
14.06000, 1477.220
14.08000, 1340.365
14.10000, 1213.621
14.12000, 1088.896
14.14000, 976.6113
14.16000, 870.7662
14.18000, 776.7200
14.20000, 694.4421
14.22000, 617.8126
14.24000, 552.9514
14.26000, 498.0881
14.28000, 443.6230
14.30000, 388.5858
14.32000, 342.8264
14.34000, 300.2748
14.36000, 260.4510
14.38000, 223.8545
14.40000, 190.8756
14.42000, 162.7341
14.44000, 136.1899
14.46000, 117.9930
14.48000, 105.8730
14.50000, 92.00012
14.52000, 76.50427
14.54000, 63.27515
14.56000, 53.46277
14.58000, 46.72717
14.60000, 42.53796
14.62000, 40.28528
14.64000, 37.57910
14.66000, 38.30920
14.68000, 44.74561
14.70000, 49.12805
14.72000, 50.93665
14.74000, 52.39111
14.76000, 54.40161
14.78000, 56.73779
14.80000, 61.56970
14.82000, 64.62720
14.84000, 66.37012
14.86000, 69.82861
14.88000, 71.07239
14.90000, 76.20142
14.92000, 81.19543
14.94000, 81.78442
14.96000, 82.30859
14.98000, 85.21765
15.00000, 85.85120
15.02000, 84.29956
15.04000, 80.80273
15.06000, 76.69116
15.08000, 68.90442
15.10000, 63.28308
15.12000, 56.73730
15.14000, 50.67725
15.16000, 40.91272
15.18000, 31.45325
15.20000, 19.87891
15.22000, 7.279541
15.24000, 0.5350340
15.26000, 4.836182
15.28000, 10.95618
15.30000, 15.76794
15.32000, 19.58374
15.34000, 20.13562
15.36000, 20.02405
15.38000, 19.80249
15.40000, 13.87183
15.42000, 15.09692
15.44000, 12.62964
15.46000, 7.167725
15.48000, 7.670776
15.50000, 10.61865
15.52000, 9.460327
15.54000, 7.319946
15.56000, 4.167358
15.58000, 1.420776
15.60000, 7.502808
15.62000, 15.91687
15.64000, 25.12341
15.66000, 41.04138
15.68000, 50.49487
15.70000, 64.28162
15.72000, 81.67456
15.74000, 106.0758
15.76000, 139.7717
15.78000, 175.1487
15.80000, 213.9485
15.82000, 257.7009
15.84000, 301.8867
15.86000, 351.5123
15.88000, 405.9254
15.90000, 462.1312
15.92000, 510.4114
15.94000, 560.3665
15.96000, 609.2081
15.98000, 649.5569
16.00000, 687.1212
16.02000, 712.6697
16.04000, 728.4263
16.06000, 732.0186
16.08000, 722.7461
16.10000, 703.5118
16.12000, 666.4761
16.14000, 616.1364
16.16000, 558.7927
16.18000, 497.0521
16.20000, 442.2040
16.22000, 384.0159
16.24000, 329.0504
16.26000, 281.8772
16.28000, 239.9403
16.30000, 208.2783
16.32000, 185.8373
16.34000, 174.1232
16.36000, 169.5316
16.38000, 177.2773
16.40000, 198.1174
16.42000, 233.8152
16.44000, 279.4628
16.46000, 344.2756
16.48000, 419.7319
16.50000, 507.1655
16.52000, 596.7003
16.54000, 685.2950
16.56000, 768.5735
16.58000, 842.5679
16.60000, 902.9735
16.62000, 945.5746
16.64000, 969.9214
16.66000, 965.9128
16.68000, 941.4498
16.70000, 906.6818
16.72000, 855.1288
16.74000, 793.7708
16.76000, 724.9176
16.78000, 650.3993
16.80000, 575.4658
16.82000, 498.8967
16.84000, 427.6123
16.86000, 359.3627
16.88000, 297.3075
16.90000, 244.4869
16.92000, 198.7214
16.94000, 162.1710
16.96000, 130.5260
16.98000, 106.6776
17.00000, 87.11536
17.02000, 70.50037
17.04000, 57.52222
17.06000, 48.62976
17.08000, 43.95288
17.10000, 38.68274
17.12000, 40.22302
17.14000, 37.60925
17.16000, 40.57971
17.18000, 46.25391
17.20000, 52.06140
17.22000, 62.82239
17.24000, 76.20654
17.26000, 92.55396
17.28000, 115.1943
17.30000, 146.6378
17.32000, 183.3245
17.34000, 218.9741
17.36000, 264.8965
17.38000, 311.8619
17.40000, 350.8770
17.42000, 391.6077
17.44000, 427.3590
17.46000, 463.3966
17.48000, 489.5709
17.50000, 504.2504
17.52000, 505.5087
17.54000, 500.8943
17.56000, 473.7306
17.58000, 436.9597
17.60000, 391.3745
17.62000, 346.5173
17.64000, 296.4955
17.66000, 249.6110
17.68000, 202.9784
17.70000, 160.3901
17.72000, 120.8959
17.74000, 88.70831
17.76000, 65.89966
17.78000, 46.39288
17.80000, 33.12964
17.82000, 26.93585
17.84000, 20.75061
17.86000, 14.77435
17.88000, 10.23163
17.90000, 6.100037
17.92000, 1.869019
17.94000, 0.5920410
17.96000, 1.369019
17.98000, 1.433044
18.00000, 2.015747
18.02000, 3.774292
18.04000, 3.907288
18.06000, 2.538147
18.08000, 1.722046
18.10000, 0.4893800
18.12000, 0.5802000
18.14000, 0.8665160
18.16000, 3.534851
18.18000, 7.512878
18.20000, 8.622009
18.22000, 7.036743
18.24000, 5.397400
18.26000, 2.756042
18.28000, 4.350525
18.30000, 5.167542
18.32000, 4.578613
18.34000, 4.355530
18.36000, 1.609985
18.38000, 0.1109010
18.40000, 1.793335
18.42000, 2.424072
18.44000, 0.3095700
18.46000, 2.706299
18.48000, 3.573853
18.50000, 6.658447
18.52000, 7.923889
18.54000, 10.65533
18.56000, 17.23346
18.58000, 24.11127
18.60000, 26.37555
18.62000, 29.23975
18.64000, 31.31494
18.66000, 31.46344
18.68000, 30.10217
18.70000, 25.09607
18.72000, 19.93262
18.74000, 17.79608
18.76000, 18.37427
18.78000, 19.10126
18.80000, 20.17010
18.82000, 18.87897
18.84000, 15.88776
18.86000, 16.03503
18.88000, 15.94476
18.90000, 19.20007
18.92000, 24.29871
18.94000, 33.61328
18.96000, 39.68665
18.98000, 50.42975
19.00000, 61.78113
19.02000, 73.94476
19.04000, 91.89569
19.06000, 108.2029
19.08000, 123.2374
19.10000, 136.4231
19.12000, 142.9701
19.14000, 144.0185
19.16000, 147.4680
19.18000, 149.1791
19.20000, 148.6013
19.22000, 149.4050
19.24000, 153.9313
19.26000, 159.6950
19.28000, 163.7835
19.30000, 169.9065
19.32000, 176.2377
19.34000, 182.1003
19.36000, 189.1562
19.38000, 199.2478
19.40000, 212.2593
19.42000, 225.4314
19.44000, 238.1143
19.46000, 251.4210
19.48000, 260.1321
19.50000, 267.8969
19.52000, 268.9259
19.54000, 263.2437
19.56000, 257.8223
19.58000, 246.9904
19.60000, 228.1099
19.62000, 204.5406
19.64000, 180.0729
19.66000, 157.3564
19.68000, 135.4615
19.70000, 115.3983
19.72000, 94.82642
19.74000, 76.93707
19.76000, 61.41534
19.78000, 47.98822
19.80000, 39.41150
19.82000, 31.15790
19.84000, 24.60980
19.86000, 17.74695
19.88000, 14.17346
19.90000, 10.78711
19.92000, 10.42346
19.94000, 12.35449
19.96000, 15.79858
19.98000, 15.30511
20.00000, 13.86121
20.02000, 12.21259
20.04000, 10.75989
20.06000, 12.25623
20.08000, 14.20709
20.10000, 13.39990
20.12000, 15.41559
20.14000, 17.06934
20.16000, 22.95166
20.18000, 33.06213
20.20000, 45.66534
20.22000, 63.01825
20.24000, 84.35614
20.26000, 113.7704
20.28000, 149.6395
20.30000, 192.3347
20.32000, 238.9167
20.34000, 295.6705
20.36000, 361.5932
20.38000, 433.5133
20.40000, 520.2454
20.42000, 603.2554
20.44000, 692.6558
20.46000, 776.8809
20.48000, 862.0066
20.50000, 936.4406
20.52000, 1000.530
20.54000, 1051.309
20.56000, 1085.580
20.58000, 1105.612
20.60000, 1105.256
20.62000, 1079.481
20.64000, 1039.431
20.66000, 974.0879
20.68000, 895.0878
20.70000, 815.4191
20.72000, 729.1806
20.74000, 652.0096
20.76000, 577.8650
20.78000, 513.7585
20.80000, 460.0110
20.82000, 424.6486
20.84000, 410.6339
20.86000, 419.9168
20.88000, 450.5344
20.90000, 498.1169
20.92000, 563.0962
20.94000, 644.4924
20.96000, 727.5886
20.98000, 811.9052
21.00000, 892.8847
21.02000, 963.1243
21.04000, 1025.235
21.06000, 1072.571
21.08000, 1114.665
21.10000, 1137.132
21.12000, 1137.985
21.14000, 1121.660
21.16000, 1086.283
21.18000, 1031.737
21.20000, 967.6577
21.22000, 889.9564
21.24000, 807.6137
21.26000, 718.3218
21.28000, 634.4554
21.30000, 550.3002
21.32000, 471.1777
21.34000, 402.6233
21.36000, 331.7855
21.38000, 276.0984
21.40000, 224.4081
21.42000, 183.7845
21.44000, 147.8380
21.46000, 114.7781
21.48000, 89.27631
21.50000, 68.43451
21.52000, 48.46674
21.54000, 34.07404
21.56000, 26.10437
21.58000, 19.96802
21.60000, 13.41876
21.62000, 6.020813
21.64000, 1.926025
21.66000, 0.7953490
21.68000, 4.047241
21.70000, 3.760986
21.72000, 6.949890
21.74000, 11.21185
21.76000, 11.70477
21.78000, 14.31091
21.80000, 13.90649
21.82000, 10.47711
21.84000, 8.781067
21.86000, 6.733398
21.88000, 3.030396
21.90000, 3.176392
21.92000, 4.345520
21.94000, 4.1138001E-02
21.96000, 5.689026
21.98000, 12.62433
22.00000, 20.24127
22.02000, 29.87799
22.04000, 39.38281
22.06000, 51.69330
22.08000, 64.96014
22.10000, 77.26550
22.12000, 92.07129
22.14000, 106.0697
22.16000, 116.1506
22.18000, 122.9032
22.20000, 126.5608
22.22000, 120.6790
22.24000, 117.9623
22.26000, 111.8893
22.28000, 103.2214
22.30000, 91.02124
22.32000, 79.57501
22.34000, 71.19061
22.36000, 59.24762
22.38000, 47.37817
22.40000, 36.38727
22.42000, 24.27289
22.44000, 13.51111
22.46000, 6.036987
22.48000, 3.825500
22.50000, 1.046082
22.52000, 3.732910
22.54000, 5.605835
22.56000, 5.621521
22.58000, 4.931213
22.60000, 1.574097
22.62000, 2.272034
22.64000, 6.036438
22.66000, 13.59900
22.68000, 26.22308
22.70000, 42.14417
22.72000, 60.67889
22.74000, 86.36877
22.76000, 122.7380
22.78000, 167.7048
22.80000, 217.8254
22.82000, 288.0803
22.84000, 358.6296
22.86000, 439.6530
22.88000, 518.3403
22.90000, 598.7811
22.92000, 675.8751
22.94000, 746.1332
22.96000, 812.0357
22.98000, 856.4041
23.00000, 891.3994
23.02000, 914.2734
23.04000, 919.0354
23.06000, 912.5641
23.08000, 896.1902
23.10000, 870.0840
23.12000, 835.4158
23.14000, 783.7546
23.16000, 737.4895
23.18000, 692.1585
23.20000, 652.9122
23.22000, 626.1710
23.24000, 612.4942
23.26000, 612.1409
23.28000, 621.7513
23.30000, 639.4448
23.32000, 670.5013
23.34000, 708.6104
23.36000, 748.2921
23.38000, 793.6952
23.40000, 835.7104
23.42000, 868.8672
23.44000, 893.7056
23.46000, 914.8857
23.48000, 931.0308
23.50000, 928.1512
23.52000, 914.4385
23.54000, 894.3422
23.56000, 864.6874
23.58000, 831.8134
23.60000, 784.4056
23.62000, 729.9488
23.64000, 668.9066
23.66000, 605.2771
23.68000, 537.4711
23.70000, 468.6885
23.72000, 403.2479
23.74000, 343.4088
23.76000, 294.6112
23.78000, 249.4550
23.80000, 211.7101
23.82000, 175.7763
23.84000, 145.9938
23.86000, 120.3008
23.88000, 96.83313
23.90000, 80.45972
23.92000, 63.08179
23.94000, 49.27936
23.96000, 42.33820
23.98000, 39.13257
24.00000, 44.61951
24.02000, 51.27643
24.04000, 55.07001
24.06000, 60.58362
24.08000, 66.08160
24.10000, 74.52734
24.12000, 85.49786
24.14000, 93.30621
24.16000, 108.3257
24.18000, 121.0335
24.20000, 134.1448
24.22000, 154.3878
24.24000, 169.6302
24.26000, 182.3138
24.28000, 191.9099
24.30000, 198.2264
24.32000, 200.5060
24.34000, 201.3215
24.36000, 197.3520
24.38000, 190.2764
24.40000, 182.1941
24.42000, 172.5039
24.44000, 164.1957
24.46000, 159.2697
24.48000, 153.2258
24.50000, 150.2770
24.52000, 146.5443
24.54000, 147.1968
24.56000, 146.1216
24.58000, 146.5586
24.60000, 149.7080
24.62000, 155.9803
24.64000, 162.8755
24.66000, 164.2742
24.68000, 167.1564
24.70000, 166.4926
24.72000, 165.5726
24.74000, 167.8962
24.76000, 164.8834
24.78000, 159.5242
24.80000, 153.7486
24.82000, 156.7666
24.84000, 156.1285
24.86000, 155.6840
24.88000, 156.9232
24.90000, 155.0059
24.92000, 148.0521
24.94000, 146.5679
24.96000, 143.1965
24.98000, 134.8325
25.00000, 129.8165
25.02000, 124.1440
25.04000, 119.8348
25.06000, 116.1511
25.08000, 117.4827
25.10000, 124.6718
25.12000, 133.0373
25.14000, 137.0331
25.16000, 142.6773
25.18000, 150.6768
25.20000, 161.4888
25.22000, 169.7228
25.24000, 180.9893
25.26000, 191.5482
25.28000, 202.1891
25.30000, 216.6724
25.32000, 231.8779
25.34000, 249.2758
25.36000, 271.0356
25.38000, 289.1416
25.40000, 301.3702
25.42000, 313.4679
25.44000, 320.1721
25.46000, 319.3865
25.48000, 315.0308
25.50000, 306.1606
25.52000, 295.6072
25.54000, 284.1204
25.56000, 272.7393
25.58000, 256.7629
25.60000, 241.7377
25.62000, 223.7302
25.64000, 201.8561
25.66000, 183.2938
25.68000, 161.4532
25.70000, 137.7159
25.72000, 110.5843
25.74000, 82.92542
25.76000, 55.17291
25.78000, 33.95593
25.80000, 14.62860
25.82000, 8.872742
25.84000, 6.868469
25.86000, 0.8733520
25.88000, 4.522278
25.90000, 9.971497
25.92000, 12.39520
25.94000, 13.80664
25.96000, 15.73236
25.98000, 14.13428
26.00000, 12.24274
26.02000, 7.452881
26.04000, 2.932617
26.06000, 0.3407590
26.08000, 4.719910
26.10000, 7.121155
26.12000, 11.87543
26.14000, 15.24420
26.16000, 17.78027
26.18000, 17.16278
26.20000, 14.75061
26.22000, 16.83289
26.24000, 24.69354
26.26000, 32.69257
26.28000, 38.41693
26.30000, 44.44867
26.32000, 50.08484
26.34000, 53.83826
26.36000, 56.72510
26.38000, 56.76917
26.40000, 60.03564
26.42000, 61.27441
26.44000, 59.66876
26.46000, 55.77454
26.48000, 41.39746
26.50000, 31.34845
26.52000, 28.04205
26.54000, 17.39722
26.56000, 12.10010
26.58000, 11.94324
26.60000, 11.43091
26.62000, 13.51324
26.64000, 18.88287
26.66000, 23.45807
26.68000, 25.49078
26.70000, 26.63763
26.72000, 23.31635
26.74000, 23.69861
26.76000, 22.97803
26.78000, 27.90045
26.80000, 33.03693
26.82000, 40.94049
26.84000, 45.93756
26.86000, 57.96729
26.88000, 56.59570
26.90000, 59.91119
26.92000, 61.41498
26.94000, 59.12488
26.96000, 61.25116
26.98000, 63.50586
27.00000, 71.06897
27.02000, 76.65326
27.04000, 73.90869
27.06000, 74.16876
27.08000, 82.98224
27.10000, 83.85596
27.12000, 84.58563
27.14000, 87.49213
27.16000, 90.15118
27.18000, 90.89429
27.20000, 88.51605
27.22000, 78.87640
27.24000, 73.03662
27.26000, 65.69946
27.28000, 61.82385
27.30000, 63.85712
27.32000, 65.64740
27.34000, 62.31305
27.36000, 59.71783
27.38000, 55.55200
27.40000, 55.75677
27.42000, 61.80804
27.44000, 65.85895
27.46000, 65.50745
27.48000, 63.86359
27.50000, 63.24908
27.52000, 60.05432
27.54000, 52.16705
27.56000, 46.05023
27.58000, 42.78394
27.60000, 36.59924
27.62000, 37.02496
27.64000, 38.11609
27.66000, 35.98877
27.68000, 36.06683
27.70000, 31.87134
27.72000, 20.72736
27.74000, 9.995728
27.76000, 1.504517
27.78000, 8.333618
27.80000, 7.760986
27.82000, 5.716370
27.84000, 5.799744
27.86000, 6.524231
27.88000, 7.501160
27.90000, 4.834106
27.92000, 1.649658
27.94000, 2.507690
27.96000, 4.817810
27.98000, 3.591003
28.00000, 4.442383
28.02000, 6.135742
28.04000, 11.26245
28.06000, 16.90637
28.08000, 29.49353
28.10000, 32.00708
28.12000, 34.45471
28.14000, 36.62769
28.16000, 38.76587
28.18000, 41.68933
28.20000, 49.35907
28.22000, 51.60791
28.24000, 53.19507
28.26000, 55.61975
28.28000, 55.08667
28.30000, 54.06305
28.32000, 55.18268
28.34000, 55.50635
28.36000, 50.10889
28.38000, 47.43402
28.40000, 44.64557
28.42000, 44.36151
28.44000, 40.02374
28.46000, 39.39636
28.48000, 36.58234
28.50000, 38.10364
28.52000, 38.05347
28.54000, 34.02362
28.56000, 28.07312
28.58000, 19.32410
28.60000, 13.54431
28.62000, 17.24786
28.64000, 16.43567
28.66000, 14.38672
28.68000, 16.66815
28.70000, 24.14581
28.72000, 29.74774
28.74000, 32.18091
28.76000, 31.84338
28.78000, 28.35712
28.80000, 23.16803
28.82000, 20.16620
28.84000, 18.16071
28.86000, 13.97229
28.88000, 11.42523
28.90000, 10.98328
28.92000, 10.56659
28.94000, 7.626038
28.96000, 9.155640
28.98000, 1.080383
29.00000, 0.3258670
29.02000, 5.913269
29.04000, 6.118286
29.06000, 4.071228
29.08000, 4.076111
29.10000, 2.578857
29.12000, 3.172791
29.14000, 4.388184
29.16000, 3.258728
29.18000, 5.205200
29.20000, 13.41528
29.22000, 16.10132
29.24000, 20.33746
29.26000, 27.02966
29.28000, 33.22778
29.30000, 39.53546
29.32000, 41.94440
29.34000, 43.98352
29.36000, 44.53186
29.38000, 50.57745
29.40000, 53.88470
29.42000, 56.67694
29.44000, 62.47742
29.46000, 61.88031
29.48000, 60.91876
29.50000, 58.46179
29.52000, 53.65564
29.54000, 47.95752
29.56000, 44.27234
29.58000, 36.17535
29.60000, 28.19623
29.62000, 20.22321
29.64000, 19.99811
29.66000, 20.17731
29.68000, 22.33740
29.70000, 24.96619
29.72000, 20.04102
29.74000, 19.16364
29.76000, 20.35150
29.78000, 14.91272
29.80000, 17.52405
29.82000, 15.61487
29.84000, 15.13446
29.86000, 15.66919
29.88000, 15.96851
29.90000, 19.15961
29.92000, 21.02557
29.94000, 25.06525
29.96000, 34.89142
29.98000, 38.01520
30.00000, 46.03748
30.02000, 52.61414
30.04000, 59.50006
30.06000, 67.18872
30.08000, 71.76538
30.10000, 81.85913
30.12000, 93.47766
30.14000, 107.7490
30.16000, 130.1923
30.18000, 146.5302
30.20000, 154.7897
30.22000, 166.8699
30.24000, 172.5551
30.26000, 172.4313
30.28000, 171.7499
30.30000, 170.7208
30.32000, 168.9131
30.34000, 166.5693
30.36000, 159.3411
30.38000, 152.0712
30.40000, 140.9047
30.42000, 135.6395
30.44000, 122.5165
30.46000, 108.6705
30.48000, 98.36584
30.50000, 90.66547
30.52000, 80.81024
30.54000, 63.70715
30.56000, 51.85236
30.58000, 37.54071
30.60000, 28.37921
30.62000, 29.75494
30.64000, 25.26898
30.66000, 24.12946
30.68000, 23.74005
30.70000, 19.13995
30.72000, 17.51959
30.74000, 19.95526
30.76000, 21.75061
30.78000, 20.04517
30.80000, 24.33459
30.82000, 27.02686
30.84000, 30.08118
30.86000, 35.33405
30.88000, 32.52832
30.90000, 25.70691
30.92000, 28.98798
30.94000, 32.07111
30.96000, 36.16168
30.98000, 41.71405
31.00000, 43.73450
31.02000, 46.37708
31.04000, 54.01990
31.06000, 54.14581
31.08000, 61.42596
31.10000, 67.71820
31.12000, 74.84766
31.14000, 77.54919
31.16000, 78.84692
31.18000, 79.94452
31.20000, 75.42523
31.22000, 71.64307
31.24000, 65.77905
31.26000, 58.24103
31.28000, 56.82117
31.30000, 61.11340
31.32000, 59.53180
31.34000, 52.96942
31.36000, 41.50708
31.38000, 33.66064
31.40000, 28.56305
31.42000, 25.07922
31.44000, 22.67426
31.46000, 25.01788
31.48000, 25.15912
31.50000, 21.40851
31.52000, 20.80682
31.54000, 20.87219
31.56000, 18.22589
31.58000, 14.04077
31.60000, 11.03674
31.62000, 8.153076
31.64000, 2.345459
31.66000, 2.212036
31.68000, 1.351074
31.70000, 0.3458860
31.72000, 5.082520
31.74000, 5.172241
31.76000, 5.631958
31.78000, 8.071411
31.80000, 8.223389
31.82000, 6.819702
31.84000, 5.131470
31.86000, 1.630188
31.88000, 2.396606
31.90000, 7.382446
31.92000, 13.48279
31.94000, 30.19006
31.96000, 39.49902
31.98000, 49.65833
32.00000, 68.38495
32.02000, 78.07983
32.04000, 87.26971
32.06000, 94.47577
32.08000, 96.53674
32.10000, 98.44922
32.12000, 97.91174
32.14000, 96.75964
32.16000, 94.72620
32.18000, 87.89661
32.20000, 81.91699
32.22000, 75.03595
32.24000, 70.28351
32.26000, 71.53424
32.28000, 72.88910
32.30000, 69.58185
32.32000, 70.45709
32.34000, 66.65649
32.36000, 62.67847
32.38000, 62.81427
32.40000, 61.34167
32.42000, 67.14166
32.44000, 84.11871
32.46000, 94.89789
32.48000, 104.8096
32.50000, 110.7583
32.52000, 113.6528
32.54000, 115.6063
32.56000, 120.2602
32.58000, 129.6685
32.60000, 133.8572
32.62000, 136.7762
32.64000, 138.8432
32.66000, 135.7290
32.68000, 135.2485
32.70000, 127.0444
32.72000, 118.9259
32.74000, 110.9399
32.76000, 104.3814
32.78000, 98.23663
32.80000, 92.52533
32.82000, 80.92340
32.84000, 68.21985
32.86000, 61.83350
32.88000, 55.97522
32.90000, 49.86023
32.92000, 46.21625
32.94000, 43.03162
32.96000, 42.68750
32.98000, 46.90900
33.00000, 55.14709
33.02000, 56.35980
33.04000, 59.58112
33.06000, 70.70197
33.08000, 73.33344
33.10000, 76.15662
33.12000, 81.52844
33.14000, 84.28131
33.16000, 84.61682
33.18000, 88.05188
33.20000, 88.11060
33.22000, 91.78821
33.24000, 94.79132
33.26000, 97.22339
33.28000, 97.33344
33.30000, 98.86658
33.32000, 93.85675
33.34000, 90.53174
33.36000, 85.62036
33.38000, 81.58746
33.40000, 79.63464
33.42000, 71.29810
33.44000, 74.93152
33.46000, 74.08075
33.48000, 71.10858
33.50000, 64.62518
33.52000, 56.43817
33.54000, 50.27545
33.56000, 47.69153
33.58000, 48.44183
33.60000, 52.22400
33.62000, 51.91040
33.64000, 49.84589
33.66000, 50.86072
33.68000, 50.01752
33.70000, 47.49158
33.72000, 41.43237
33.74000, 40.95026
33.76000, 41.42163
33.78000, 43.25610
33.80000, 44.69354
33.82000, 45.26904
33.84000, 41.76129
33.86000, 44.18628
33.88000, 35.47949
33.90000, 44.32739
33.92000, 47.29565
33.94000, 44.16003
33.96000, 40.65259
33.98000, 39.61090
34.00000, 41.88977
34.02000, 45.14612
34.04000, 45.58228
34.06000, 48.13293
34.08000, 48.24908
34.10000, 40.49841
34.12000, 35.13483
34.14000, 38.63324
34.16000, 40.21655
34.18000, 37.98956
34.20000, 37.54578
34.22000, 34.36938
34.24000, 28.07098
34.26000, 17.69806
34.28000, 15.27301
34.30000, 8.909790
34.32000, 8.210510
34.34000, 12.35876
34.36000, 14.68134
34.38000, 12.01318
34.40000, 11.29565
34.42000, 5.083252
34.44000, 1.153259
34.46000, 3.453735
34.48000, 1.228271
34.50000, 3.2166000E-02
34.52000, 5.357544
34.54000, 5.056458
34.56000, 10.32391
34.58000, 16.00659
34.60000, 16.68207
34.62000, 28.76404
34.64000, 38.35919
34.66000, 36.62616
34.68000, 30.49835
34.70000, 25.97137
34.72000, 15.81879
34.74000, 10.56067
34.76000, 3.197632
34.78000, 0.3859860
34.80000, 8.608765
34.82000, 11.90009
34.84000, 0.8358150
34.86000, 1.143982
34.88000, 0.0000000E+00
##END=



