##NAMES=Romarchite
##RRUFFID=R080006
##IDEAL CHEMISTRY=SnO
##LOCALITY=Boundary Falls, Winnipeg River, Ontario, Canada
##OWNER=RRUFF
##SOURCE=Royal Ontario Museum
##DESCRIPTION=Incrusted lustrous black crystals, reported to be fine-grained psuedomorphs of an unknown phase. Co-type material.
##DIFFRACTION SAMPLE DESCRIPTION=Powder, using Mo radiation
##STATUS=The identification of this mineral has been confirmed by X-ray diffraction and chemical analysis
##URL=rruff.info/R080006
##MEASURED CHEMISTRY=Sn_1.00_O
##CELL PARAMETERS=a: 3.8256(7) b: 3.8256(7) c: 4.879(3) alpha: 90 beta: 90 gamma: 90 volume: 71.41(4) crystal system: tetragonal
7.840000, 0.0000000E+00
7.870000, 7.5728998E-02
7.900000, 0.7035830
7.930000, 0.1425930
7.960000, 4.081772
7.990000, 4.964981
8.020000, 7.279831
8.050000, 9.247650
8.080000, 6.284698
8.110000, 4.880203
8.140000, 13.32092
8.170000, 28.18669
8.200000, 43.25002
8.230000, 52.25406
8.260000, 55.74348
8.290000, 58.97433
8.320000, 60.03082
8.350000, 68.27437
8.380000, 77.04657
8.410000, 83.30142
8.440000, 87.41841
8.470000, 84.86104
8.500000, 79.57321
8.530000, 75.61029
8.560000, 70.58612
8.590000, 56.75055
8.620000, 41.31966
8.650000, 31.04594
8.680000, 21.91248
8.710000, 17.70496
8.740000, 18.95380
8.770000, 16.28557
8.800000, 8.303543
8.830000, 4.933899
8.860000, 4.092896
8.890000, 4.241440
8.920000, 3.638306
8.950000, 4.984039
8.980000, 6.640564
9.010000, 7.596756
9.040000, 7.567429
9.070000, 5.427673
9.100000, 2.079025
9.130000, 0.9724270
9.160000, 3.678726
9.190000, 5.740814
9.220000, 13.22859
9.250000, 18.55565
9.280000, 23.63541
9.310000, 27.58585
9.340000, 25.56200
9.370000, 27.78453
9.400000, 24.04634
9.430000, 25.84459
9.460000, 22.30580
9.490000, 19.43126
9.520000, 15.32413
9.550000, 13.08800
9.580000, 11.14452
9.610000, 7.638123
9.640000, 5.855591
9.670000, 4.069672
9.700000, 1.489746
9.730000, 0.4046780
9.760000, 2.301254
9.790000, 3.893738
9.820000, 4.274521
9.850000, 5.824646
9.880000, 6.333130
9.910000, 5.682205
9.940000, 3.651123
9.970000, 1.625885
10.00000, 3.365616
10.03000, 2.734024
10.06000, 4.287964
10.09000, 3.205414
10.12000, 2.211304
10.15000, 6.805206
10.18000, 7.189056
10.21000, 4.532196
10.24000, 0.2490230
10.27000, 4.071075
10.30000, 3.755539
10.33000, 2.176636
10.36000, 6.031586
10.39000, 9.005341
10.42000, 13.72295
10.45000, 10.30544
10.48000, 6.401840
10.51000, 2.625290
10.54000, 1.271835
10.57000, 3.100525
10.60000, 4.960831
10.63000, 3.668213
10.66000, 0.8804470
10.69000, 0.5414730
10.72000, 2.184296
10.75000, 1.271164
10.78000, 2.870102
10.81000, 7.441101
10.84000, 10.83119
10.87000, 11.48550
10.90000, 14.19608
10.93000, 15.45966
10.96000, 17.58224
10.99000, 16.12700
11.02000, 15.22018
11.05000, 17.94067
11.08000, 21.67822
11.11000, 21.74651
11.14000, 23.46329
11.17000, 26.19502
11.20000, 23.12729
11.23000, 19.70364
11.26000, 18.20831
11.29000, 19.70221
11.32000, 21.40831
11.35000, 23.50063
11.38000, 19.59341
11.41000, 13.53557
11.44000, 14.06906
11.47000, 16.76683
11.50000, 17.52547
11.53000, 16.79291
11.56000, 15.90933
11.59000, 17.25710
11.62000, 18.85869
11.65000, 17.68481
11.68000, 16.81731
11.71000, 15.62682
11.74000, 14.77008
11.77000, 16.08369
11.80000, 19.38766
11.83000, 21.02315
11.86000, 25.75230
11.89000, 28.24231
11.92000, 31.28017
11.95000, 31.23978
11.98000, 34.45712
12.01000, 29.17424
12.04000, 26.73567
12.07000, 25.03551
12.10000, 23.75797
12.13000, 22.12440
12.16000, 22.99400
12.19000, 22.80086
12.22000, 22.17010
12.25000, 21.41988
12.28000, 22.82620
12.31000, 26.22823
12.34000, 27.56595
12.37000, 26.01143
12.40000, 24.41515
12.43000, 25.28357
12.46000, 30.06430
12.49000, 33.08946
12.52000, 36.29327
12.55000, 37.03705
12.58000, 34.40410
12.61000, 35.13885
12.64000, 37.95531
12.67000, 44.45477
12.70000, 49.11136
12.73000, 50.34663
12.76000, 52.61444
12.79000, 51.47411
12.82000, 49.72749
12.85000, 48.98653
12.88000, 53.84424
12.91000, 60.70958
12.94000, 67.05556
12.97000, 78.84624
13.00000, 95.39478
13.03000, 114.1417
13.06000, 133.5334
13.09000, 155.5670
13.12000, 179.6149
13.15000, 202.9591
13.18000, 229.5618
13.21000, 265.4363
13.24000, 312.5631
13.27000, 373.4297
13.30000, 450.8873
13.33000, 548.3246
13.36000, 673.8278
13.39000, 838.4107
13.42000, 1024.172
13.45000, 1210.055
13.48000, 1412.395
13.51000, 1581.266
13.54000, 1744.372
13.57000, 1867.132
13.60000, 1959.465
13.63000, 2021.061
13.66000, 2041.219
13.69000, 2033.688
13.72000, 1994.831
13.75000, 1905.746
13.78000, 1771.093
13.81000, 1578.382
13.84000, 1361.222
13.87000, 1128.093
13.90000, 904.3504
13.93000, 711.0781
13.96000, 554.5499
13.99000, 440.9088
14.02000, 364.3588
14.05000, 318.5888
14.08000, 291.7455
14.11000, 275.4207
14.14000, 273.0782
14.17000, 284.0661
14.20000, 299.6614
14.23000, 309.3874
14.26000, 319.3581
14.29000, 328.2809
14.32000, 335.0833
14.35000, 339.2760
14.38000, 341.3346
14.41000, 342.7725
14.44000, 330.3151
14.47000, 308.7199
14.50000, 285.3764
14.53000, 255.2911
14.56000, 227.7657
14.59000, 206.1229
14.62000, 183.7854
14.65000, 163.0412
14.68000, 143.6357
14.71000, 123.5239
14.74000, 106.1818
14.77000, 91.55020
14.80000, 83.42926
14.83000, 85.55986
14.86000, 98.79395
14.89000, 121.4991
14.92000, 158.0771
14.95000, 198.3169
14.98000, 252.0654
15.01000, 316.1560
15.04000, 378.5269
15.07000, 444.6954
15.10000, 497.9051
15.13000, 538.1772
15.16000, 563.2518
15.19000, 579.8895
15.22000, 593.3405
15.25000, 594.2900
15.28000, 581.8690
15.31000, 564.9640
15.34000, 527.3563
15.37000, 477.2709
15.40000, 407.4449
15.43000, 333.6251
15.46000, 260.1136
15.49000, 197.3074
15.52000, 146.4495
15.55000, 106.5488
15.58000, 78.16541
15.61000, 59.21033
15.64000, 50.46552
15.67000, 42.04498
15.70000, 36.02274
15.73000, 33.12379
15.76000, 31.32809
15.79000, 31.32169
15.82000, 27.78157
15.85000, 23.55869
15.88000, 21.41107
15.91000, 16.73668
15.94000, 11.62953
15.97000, 13.18661
16.00000, 16.87292
16.03000, 16.88145
16.06000, 15.65735
16.09000, 16.30368
16.12000, 18.04448
16.15000, 24.20261
16.18000, 30.98602
16.21000, 41.87068
16.24000, 53.24059
16.27000, 64.54980
16.30000, 76.86656
16.33000, 88.52403
16.36000, 101.1758
16.39000, 109.5448
16.42000, 119.6230
16.45000, 133.1613
16.48000, 145.9347
16.51000, 159.6169
16.54000, 170.0520
16.57000, 178.9645
16.60000, 189.5785
16.63000, 198.7740
16.66000, 202.0130
16.69000, 203.7217
16.72000, 201.6038
16.75000, 198.7405
16.78000, 197.3067
16.81000, 194.0468
16.84000, 187.0685
16.87000, 179.8553
16.90000, 169.4591
16.93000, 161.7363
16.96000, 143.6038
16.99000, 128.9473
17.02000, 112.5678
17.05000, 98.23711
17.08000, 83.27011
17.11000, 66.36523
17.14000, 51.49518
17.17000, 38.16389
17.20000, 28.38892
17.23000, 21.82532
17.26000, 19.36284
17.29000, 16.90982
17.32000, 16.97900
17.35000, 15.81680
17.38000, 15.40570
17.41000, 16.66429
17.44000, 16.31676
17.47000, 19.26077
17.50000, 22.75169
17.53000, 17.25183
17.56000, 8.396133
17.59000, 5.835632
17.62000, 5.562286
17.65000, 4.025131
17.68000, 3.094116
17.71000, 1.402161
17.74000, 0.5827790
17.77000, 1.317337
17.80000, 2.198853
17.83000, 2.333084
17.86000, 2.252869
17.89000, 0.6652830
17.92000, 1.020279
17.95000, 0.3487090
17.98000, 0.5446320
18.01000, 0.7014010
18.04000, 0.4180760
18.07000, 2.329590
18.10000, 3.975922
18.13000, 3.009995
18.16000, 0.3057100
18.19000, 5.179886
18.22000, 7.607010
18.25000, 10.51215
18.28000, 12.03024
18.31000, 10.57333
18.34000, 11.45135
18.37000, 11.13536
18.40000, 10.88733
18.43000, 6.955231
18.46000, 1.285095
18.49000, 2.306641
18.52000, 3.685959
18.55000, 3.670074
18.58000, 8.068024
18.61000, 12.58890
18.64000, 16.36569
18.67000, 26.46140
18.70000, 33.70801
18.73000, 42.51251
18.76000, 50.12993
18.79000, 59.08022
18.82000, 65.79245
18.85000, 68.67151
18.88000, 72.07246
18.91000, 71.22330
18.94000, 66.59605
18.97000, 61.50760
19.00000, 52.68205
19.03000, 46.15137
19.06000, 35.78954
19.09000, 23.33554
19.12000, 19.26141
19.15000, 15.99213
19.18000, 13.61571
19.21000, 11.46510
19.24000, 10.79333
19.27000, 14.82243
19.30000, 19.09435
19.33000, 21.84807
19.36000, 28.24062
19.39000, 33.16798
19.42000, 34.10818
19.45000, 33.02620
19.48000, 32.41304
19.51000, 31.69966
19.54000, 29.30110
19.57000, 26.64433
19.60000, 25.73140
19.63000, 28.41823
19.66000, 29.92088
19.69000, 28.19530
19.72000, 25.78554
19.75000, 25.53153
19.78000, 26.66733
19.81000, 26.22189
19.84000, 25.64423
19.87000, 23.36636
19.90000, 21.40326
19.93000, 19.49092
19.96000, 16.94415
19.99000, 14.81964
20.02000, 11.88949
20.05000, 9.660194
20.08000, 7.024666
20.11000, 3.520859
20.14000, 1.864578
20.17000, 0.5674290
20.20000, 2.479301
20.23000, 2.207054
20.26000, 0.6215440
20.29000, 0.2579500
20.32000, 1.713043
20.35000, 3.171654
20.38000, 3.822495
20.41000, 3.086937
20.44000, 3.665482
20.47000, 4.167709
20.50000, 3.000603
20.53000, 5.394638
20.56000, 4.770088
20.59000, 4.975586
20.62000, 6.557266
20.65000, 5.942963
20.68000, 5.149323
20.71000, 5.237938
20.74000, 3.129845
20.77000, 2.608910
20.80000, 2.520851
20.83000, 1.347595
20.86000, 2.443512
20.89000, 2.039124
20.92000, 1.617241
20.95000, 0.7445760
20.98000, 1.713371
21.01000, 3.673744
21.04000, 7.396835
21.07000, 11.46979
21.10000, 13.26861
21.13000, 19.43430
21.16000, 27.46490
21.19000, 35.94638
21.22000, 48.04733
21.25000, 65.72732
21.28000, 92.83465
21.31000, 119.4495
21.34000, 150.1479
21.37000, 182.1478
21.40000, 213.5011
21.43000, 247.6158
21.46000, 282.4731
21.49000, 308.7362
21.52000, 335.4889
21.55000, 349.5916
21.58000, 351.4203
21.61000, 344.8571
21.64000, 330.6479
21.67000, 303.6030
21.70000, 274.5450
21.73000, 243.9569
21.76000, 211.5254
21.79000, 176.4286
21.82000, 144.2044
21.85000, 115.6915
21.88000, 90.58485
21.91000, 74.00255
21.94000, 62.86053
21.97000, 54.84285
22.00000, 53.11270
22.03000, 52.54715
22.06000, 53.88843
22.09000, 52.57610
22.12000, 53.51570
22.15000, 58.42638
22.18000, 60.77086
22.21000, 64.30074
22.24000, 71.74003
22.27000, 79.86674
22.30000, 87.69586
22.33000, 96.36941
22.36000, 106.6294
22.39000, 119.9008
22.42000, 142.8997
22.45000, 172.3750
22.48000, 209.4159
22.51000, 255.6672
22.54000, 301.8160
22.57000, 356.3344
22.60000, 411.1662
22.63000, 470.7925
22.66000, 512.9713
22.69000, 547.7148
22.72000, 578.3896
22.75000, 587.3572
22.78000, 577.7023
22.81000, 560.6859
22.84000, 524.8522
22.87000, 480.9119
22.90000, 429.4734
22.93000, 375.7674
22.96000, 322.9830
22.99000, 275.8964
23.02000, 232.1963
23.05000, 196.2159
23.08000, 168.3290
23.11000, 150.1049
23.14000, 140.3305
23.17000, 134.9678
23.20000, 130.7257
23.23000, 130.7493
23.26000, 134.2417
23.29000, 137.8798
23.32000, 132.7756
23.35000, 127.4392
23.38000, 125.6975
23.41000, 122.3496
23.44000, 119.2594
23.47000, 113.5290
23.50000, 104.2254
23.53000, 96.97764
23.56000, 86.71066
23.59000, 75.75948
23.62000, 65.95015
23.65000, 55.05764
23.68000, 45.06450
23.71000, 35.50439
23.74000, 29.20283
23.77000, 26.51572
23.80000, 24.04708
23.83000, 19.35706
23.86000, 17.68320
23.89000, 17.86087
23.92000, 18.68500
23.95000, 19.91528
23.98000, 19.76212
24.01000, 18.46839
24.04000, 18.20561
24.07000, 20.25471
24.10000, 22.34059
24.13000, 23.70387
24.16000, 25.66518
24.19000, 28.61354
24.22000, 27.47406
24.25000, 30.19987
24.28000, 25.02428
24.31000, 21.23183
24.34000, 18.51186
24.37000, 15.72406
24.40000, 14.32043
24.43000, 14.55949
24.46000, 11.72440
24.49000, 8.141953
24.52000, 4.450409
24.55000, 1.735657
24.58000, 0.4664310
24.61000, 0.5342860
24.64000, 2.802582
24.67000, 1.760101
24.70000, 1.833405
24.73000, 1.634705
24.76000, 0.6242220
24.79000, 6.6497996E-02
24.82000, 0.2564700
24.85000, 2.055359
24.88000, 4.361191
24.91000, 7.499954
24.94000, 10.51761
24.97000, 10.31300
25.00000, 9.293533
25.03000, 8.274536
25.06000, 9.126633
25.09000, 13.02283
25.12000, 20.57890
25.15000, 28.63040
25.18000, 38.93675
25.21000, 52.78479
25.24000, 72.14522
25.27000, 105.5457
25.30000, 153.0655
25.33000, 203.8738
25.36000, 259.4355
25.39000, 326.8191
25.42000, 389.2803
25.45000, 453.1049
25.48000, 512.0760
25.51000, 568.2510
25.54000, 606.9405
25.57000, 623.2440
25.60000, 625.1408
25.63000, 610.7115
25.66000, 579.9877
25.69000, 543.5815
25.72000, 493.0969
25.75000, 435.8430
25.78000, 372.6021
25.81000, 309.4141
25.84000, 254.2339
25.87000, 199.9706
25.90000, 162.8701
25.93000, 132.1655
25.96000, 103.2217
25.99000, 85.94489
26.02000, 77.38786
26.05000, 70.62173
26.08000, 65.65648
26.11000, 60.55278
26.14000, 56.35406
26.17000, 53.32091
26.20000, 49.54616
26.23000, 45.97728
26.26000, 43.20845
26.29000, 40.42082
26.32000, 38.99289
26.35000, 36.72452
26.38000, 34.30203
26.41000, 34.48346
26.44000, 30.07674
26.47000, 22.63493
26.50000, 19.99400
26.53000, 19.65196
26.56000, 18.68579
26.59000, 21.69153
26.62000, 26.18512
26.65000, 27.85764
26.68000, 32.40004
26.71000, 32.37033
26.74000, 30.13049
26.77000, 31.97157
26.80000, 35.53152
26.83000, 36.62335
26.86000, 33.55807
26.89000, 32.57669
26.92000, 35.83020
26.95000, 37.83357
26.98000, 39.91783
27.01000, 42.51401
27.04000, 46.48605
27.07000, 51.89598
27.10000, 61.40581
27.13000, 75.89047
27.16000, 95.38005
27.19000, 114.4875
27.22000, 138.3038
27.25000, 169.9840
27.28000, 205.7041
27.31000, 245.9402
27.34000, 286.3455
27.37000, 322.2043
27.40000, 350.4154
27.43000, 377.1976
27.46000, 399.7725
27.49000, 416.9557
27.52000, 428.0016
27.55000, 424.6799
27.58000, 416.1365
27.61000, 399.9789
27.64000, 368.4689
27.67000, 338.5866
27.70000, 304.9265
27.73000, 264.2223
27.76000, 224.7209
27.79000, 192.3472
27.82000, 161.8119
27.85000, 128.8154
27.88000, 105.4094
27.91000, 84.19173
27.94000, 71.34988
27.97000, 62.42732
28.00000, 56.96719
28.03000, 48.12605
28.06000, 39.45718
28.09000, 34.45216
28.12000, 27.67591
28.15000, 24.12698
28.18000, 23.88914
28.21000, 20.82116
28.24000, 16.56150
28.27000, 13.36556
28.30000, 11.91681
28.33000, 11.43628
28.36000, 9.984711
28.39000, 8.933838
28.42000, 8.773735
28.45000, 5.687439
28.48000, 2.335037
28.51000, 1.177414
28.54000, 2.751114
28.57000, 7.131912
28.60000, 8.977951
28.63000, 10.62080
28.66000, 13.42960
28.69000, 14.34702
28.72000, 14.91540
28.75000, 16.04102
28.78000, 14.81116
28.81000, 12.01453
28.84000, 10.71877
28.87000, 11.77344
28.90000, 12.51470
28.93000, 9.689491
28.96000, 9.115013
28.99000, 6.797073
29.02000, 5.832817
29.05000, 3.772064
29.08000, 4.121773
29.11000, 0.1104510
29.14000, 1.821175
29.17000, 2.206741
29.20000, 1.810799
29.23000, 0.9917220
29.26000, 5.243240
29.29000, 9.460747
29.32000, 12.44823
29.35000, 14.42268
29.38000, 12.94411
29.41000, 15.92748
29.44000, 15.73680
29.47000, 10.85407
29.50000, 10.50726
29.53000, 13.31438
29.56000, 16.69042
29.59000, 20.95937
29.62000, 24.75720
29.65000, 26.42495
29.68000, 28.93258
29.71000, 29.77509
29.74000, 28.50548
29.77000, 27.40472
29.80000, 25.86581
29.83000, 26.45877
29.86000, 28.29355
29.89000, 31.97817
29.92000, 32.71562
29.95000, 34.51888
29.98000, 34.84496
30.01000, 35.70683
30.04000, 36.18850
30.07000, 36.77596
30.10000, 34.91418
30.13000, 31.73519
30.16000, 27.15096
30.19000, 22.28850
30.22000, 14.79376
30.25000, 9.705772
30.28000, 9.897522
30.31000, 13.93800
30.34000, 22.84719
30.37000, 29.18311
30.40000, 35.82570
30.43000, 43.91600
30.46000, 51.69400
30.49000, 60.23065
30.52000, 72.10999
30.55000, 82.54601
30.58000, 89.66966
30.61000, 94.47498
30.64000, 99.69795
30.67000, 100.9185
30.70000, 96.04776
30.73000, 90.15560
30.76000, 81.55608
30.79000, 71.34615
30.82000, 62.16580
30.85000, 54.83807
30.88000, 49.06693
30.91000, 41.43636
30.94000, 29.45634
30.97000, 18.08289
31.00000, 11.10199
31.03000, 4.394905
31.06000, 1.759750
31.09000, 2.292198
31.12000, 0.8158570
31.15000, 0.3731380
31.18000, 1.888573
31.21000, 2.584442
31.24000, 5.109756
31.27000, 4.411301
31.30000, 6.629662
31.33000, 3.227226
31.36000, 3.016174
31.39000, 1.928482
31.42000, 2.293098
31.45000, 1.950027
31.48000, 0.3316730
31.51000, 0.7673800
31.54000, 1.086243
31.57000, 2.140488
31.60000, 3.896355
31.63000, 6.036110
31.66000, 6.117805
31.69000, 4.338905
31.72000, 3.035995
31.75000, 3.365700
31.78000, 3.281029
31.81000, 2.378448
31.84000, 0.8779750
31.87000, 1.329315
31.90000, 2.414238
31.93000, 2.584770
31.96000, 2.032265
31.99000, 1.399597
32.02000, 0.8624270
32.05000, 1.454224
32.08000, 1.173729
32.11000, 3.719452
32.14000, 4.096626
32.17000, 1.562149
32.20000, 1.0101000E-02
32.23000, 1.599373
32.26000, 0.2379230
32.29000, 0.7987590
32.32000, 0.5426030
32.35000, 0.2826230
32.38000, 1.528084
32.41000, 0.8893810
32.44000, 1.124504
32.47000, 7.6614000E-02
32.50000, 3.401161
32.53000, 5.519501
32.56000, 5.390839
32.59000, 3.275108
32.62000, 1.021431
32.65000, 1.687920
32.68000, 2.227745
32.71000, 3.309654
32.74000, 6.170898
32.77000, 8.206673
32.80000, 10.78788
32.83000, 15.53333
32.86000, 18.09699
32.89000, 19.00884
32.92000, 20.90291
32.95000, 22.39517
32.98000, 23.07964
33.01000, 22.62330
33.04000, 23.03117
33.07000, 25.94424
33.10000, 29.10352
33.13000, 27.82600
33.16000, 25.46470
33.19000, 24.48161
33.22000, 28.62571
33.25000, 33.21101
33.28000, 34.32853
33.31000, 37.11528
33.34000, 39.40822
33.37000, 43.09937
33.40000, 52.02875
33.43000, 60.11034
33.46000, 70.01617
33.49000, 77.81517
33.52000, 82.26541
33.55000, 93.86288
33.58000, 102.8756
33.61000, 104.1065
33.64000, 105.8836
33.67000, 107.9210
33.70000, 108.6956
33.73000, 106.8555
33.76000, 104.4261
33.79000, 100.7098
33.82000, 94.29832
33.85000, 89.36511
33.88000, 85.37743
33.91000, 82.12099
33.94000, 77.69889
33.97000, 77.42467
34.00000, 74.72867
34.03000, 71.71093
34.06000, 70.21747
34.09000, 72.42325
34.12000, 73.04729
34.15000, 78.76357
34.18000, 83.44815
34.21000, 84.91201
34.24000, 90.06815
34.27000, 95.63956
34.30000, 98.28126
34.33000, 99.70129
34.36000, 94.34257
34.39000, 90.96218
34.42000, 87.28506
34.45000, 81.12625
34.48000, 78.00478
34.51000, 74.21760
34.54000, 70.22373
34.57000, 73.19318
34.60000, 71.52698
34.63000, 64.06509
34.66000, 60.40471
34.69000, 54.62589
34.72000, 51.88967
34.75000, 53.58589
34.78000, 55.76197
34.81000, 59.72118
34.84000, 67.45580
34.87000, 74.62978
34.90000, 84.40816
34.93000, 98.79193
34.96000, 114.6211
34.99000, 134.8595
35.02000, 155.6716
35.05000, 172.9472
35.08000, 191.4468
35.11000, 205.5233
35.14000, 214.4848
35.17000, 222.4718
35.20000, 224.3856
35.23000, 226.8638
35.26000, 224.9002
35.29000, 220.2211
35.32000, 212.9722
35.35000, 202.1721
35.38000, 187.1444
35.41000, 172.1981
35.44000, 154.3979
35.47000, 135.3779
35.50000, 118.1544
35.53000, 102.4841
35.56000, 88.17471
35.59000, 78.92189
35.62000, 69.50184
35.65000, 63.53736
35.68000, 58.25341
35.71000, 51.28027
35.74000, 44.54521
35.77000, 38.80107
35.80000, 33.18526
35.83000, 32.18066
35.86000, 30.09953
35.89000, 27.63432
35.92000, 27.04707
35.95000, 23.78236
35.98000, 17.75896
36.01000, 14.11390
36.04000, 13.42680
36.07000, 11.31255
36.10000, 12.62679
36.13000, 13.53335
36.16000, 14.27543
36.19000, 16.71288
36.22000, 16.81313
36.25000, 19.56639
36.28000, 18.38400
36.31000, 20.94794
36.34000, 22.48764
36.37000, 21.91362
36.40000, 23.18583
36.43000, 25.68604
36.46000, 26.30930
36.49000, 22.57459
36.52000, 17.50493
36.55000, 13.45529
36.58000, 13.83971
36.61000, 16.03419
36.64000, 16.81871
36.67000, 13.34430
36.70000, 11.44097
36.73000, 10.10669
36.76000, 7.997490
36.79000, 10.16438
36.82000, 12.50236
36.85000, 10.66842
36.88000, 11.52357
36.91000, 11.62383
36.94000, 11.54948
36.97000, 9.734657
37.00000, 13.32823
37.03000, 13.44492
37.06000, 16.29674
37.09000, 17.29568
37.12000, 17.71477
37.15000, 22.80498
37.18000, 27.18732
37.21000, 33.10782
37.24000, 37.23645
37.27000, 40.13724
37.30000, 42.49121
37.33000, 44.10332
37.36000, 45.37059
37.39000, 52.23604
37.42000, 52.25567
37.45000, 50.78847
37.48000, 47.68744
37.51000, 43.77061
37.54000, 44.66197
37.57000, 44.95154
37.60000, 39.07131
37.63000, 35.05827
37.66000, 32.16846
37.69000, 28.72685
37.72000, 27.22763
37.75000, 25.80018
37.78000, 22.16775
37.81000, 19.52102
37.84000, 18.21509
37.87000, 17.22046
37.90000, 15.16408
37.93000, 14.42793
37.96000, 16.53703
37.99000, 18.66842
38.02000, 19.89126
38.05000, 20.86338
38.08000, 22.02075
38.11000, 26.60344
38.14000, 37.01041
38.17000, 50.80464
38.20000, 60.94318
38.23000, 69.18797
38.26000, 80.89614
38.29000, 92.06137
38.32000, 102.2626
38.35000, 110.3095
38.38000, 115.5779
38.41000, 120.4430
38.44000, 123.1677
38.47000, 122.8256
38.50000, 121.1829
38.53000, 118.8008
38.56000, 114.2241
38.59000, 108.9536
38.62000, 101.5402
38.65000, 93.00113
38.68000, 83.47478
38.71000, 74.31631
38.74000, 68.72572
38.77000, 58.36129
38.80000, 45.15561
38.83000, 36.59607
38.86000, 30.11003
38.89000, 23.54510
38.92000, 18.78630
38.95000, 17.34462
38.98000, 16.17952
39.01000, 11.59921
39.04000, 9.317184
39.07000, 9.901909
39.10000, 6.838684
39.13000, 6.422691
39.16000, 7.910988
39.19000, 6.001648
39.22000, 3.941650
39.25000, 3.235428
39.28000, 3.892860
39.31000, 6.771942
39.34000, 8.590782
39.37000, 6.927711
39.40000, 3.906326
39.43000, 0.4476550
39.46000, 2.791145
39.49000, 4.473137
39.52000, 4.191734
39.55000, 2.975830
39.58000, 2.676552
39.61000, 1.512711
39.64000, 0.6108400
39.67000, 1.021469
39.70000, 4.053909
39.73000, 6.069214
39.76000, 5.870667
39.79000, 5.661705
39.82000, 4.979736
39.85000, 6.845131
39.88000, 9.441856
39.91000, 14.61582
39.94000, 18.66699
39.97000, 23.46838
40.00000, 31.85602
40.03000, 39.74583
40.06000, 48.21989
40.09000, 56.27217
40.12000, 66.71065
40.15000, 80.39536
40.18000, 90.97324
40.21000, 97.59238
40.24000, 102.7457
40.27000, 104.7632
40.30000, 109.3620
40.33000, 111.4630
40.36000, 113.3011
40.39000, 112.4845
40.42000, 112.9671
40.45000, 110.8693
40.48000, 110.5868
40.51000, 104.5900
40.54000, 99.02543
40.57000, 93.60402
40.60000, 81.83485
40.63000, 75.63383
40.66000, 70.61103
40.69000, 65.11742
40.72000, 59.45570
40.75000, 55.40779
40.78000, 49.42575
40.81000, 45.18791
40.84000, 42.46127
40.87000, 40.09480
40.90000, 35.78754
40.93000, 32.41645
40.96000, 28.24258
40.99000, 26.55889
41.02000, 29.10239
41.05000, 25.86106
41.08000, 23.28192
41.11000, 19.93996
41.14000, 17.64417
41.17000, 17.76464
41.20000, 18.00137
41.23000, 18.96933
41.26000, 20.60345
41.29000, 19.61349
41.32000, 18.86866
41.35000, 21.09264
41.38000, 21.73655
41.41000, 21.51675
41.44000, 23.51461
41.47000, 24.72578
41.50000, 27.53507
41.53000, 29.54150
41.56000, 31.07285
41.59000, 33.35486
41.62000, 35.46063
41.65000, 35.51253
41.68000, 32.29166
41.71000, 29.81886
41.74000, 29.44806
41.77000, 29.81637
41.80000, 26.70103
41.83000, 25.98008
41.86000, 24.61488
41.89000, 20.53593
41.92000, 22.36623
41.95000, 22.02132
41.98000, 18.30212
42.01000, 14.12981
42.04000, 10.20780
42.07000, 8.241264
42.10000, 6.597168
42.13000, 7.485832
42.16000, 8.719521
42.19000, 7.383469
42.22000, 6.894035
42.25000, 6.387650
42.28000, 1.578102
42.31000, 1.805130
42.34000, 2.188133
42.37000, 2.175110
42.40000, 1.491173
42.43000, 0.3984830
42.46000, 0.7735820
42.49000, 1.249878
42.52000, 2.952339
42.55000, 5.364578
42.58000, 5.459267
42.61000, 3.641769
42.64000, 1.178238
42.67000, 1.137222
42.70000, 2.027016
42.73000, 1.922844
42.76000, 1.190514
42.79000, 0.3484880
42.82000, 0.3020400
42.85000, 1.961151
42.88000, 2.492279
42.91000, 4.010025
42.94000, 5.397285
42.97000, 5.178452
43.00000, 4.928505
43.03000, 6.522667
43.06000, 7.488304
43.09000, 7.478340
43.12000, 7.928711
43.15000, 8.416786
43.18000, 8.140633
43.21000, 6.934685
43.24000, 3.726616
43.27000, 2.135063
43.30000, 1.474014
43.33000, 1.008278
43.36000, 2.725136
43.39000, 3.561783
43.42000, 4.300201
43.45000, 3.931908
43.48000, 4.064804
43.51000, 6.237808
43.54000, 7.551910
43.57000, 7.469833
43.60000, 9.326622
43.63000, 10.09827
43.66000, 10.48371
43.69000, 12.23151
43.72000, 12.26960
43.75000, 12.94454
43.78000, 15.68837
43.81000, 16.62505
43.84000, 15.80360
43.87000, 15.94803
43.90000, 17.16632
43.93000, 17.68048
43.96000, 17.96650
43.99000, 17.46471
44.02000, 15.74302
44.05000, 16.17425
44.08000, 16.71041
44.11000, 17.85743
44.14000, 16.89730
44.17000, 14.48604
44.20000, 13.04662
44.23000, 12.61707
44.26000, 12.48639
44.29000, 12.73255
44.32000, 11.11996
44.35000, 12.82045
44.38000, 13.00317
44.41000, 10.46095
44.44000, 10.52827
44.47000, 8.399101
44.50000, 6.864586
44.53000, 8.869820
44.56000, 10.06670
44.59000, 7.302338
44.62000, 6.649124
44.65000, 7.929535
44.68000, 7.913818
44.71000, 4.719643
44.74000, 3.874420
44.77000, 5.772469
44.80000, 5.958977
44.83000, 2.845268
44.86000, 0.1328200
44.89000, 1.468910
44.92000, 2.433838
44.95000, 1.251076
44.98000, 1.587830
45.01000, 0.3757480
45.04000, 3.031067
45.07000, 3.742226
45.10000, 3.179855
45.13000, 0.5204160
45.16000, 0.2399140
45.19000, 0.9407730
45.22000, 1.796211
45.25000, 0.4167100
45.28000, 0.6832730
45.31000, 1.734962
45.34000, 1.252800
45.37000, 0.5751880
45.40000, 0.4638900
45.43000, 0.6522830
45.46000, 0.3053970
45.49000, 0.9319760
45.52000, 2.5536001E-02
45.55000, 0.8480830
45.58000, 0.4821700
45.61000, 2.688461
45.64000, 5.055252
45.67000, 7.088287
45.70000, 7.958580
45.73000, 10.90062
45.76000, 14.21722
45.79000, 14.62868
45.82000, 14.02499
45.85000, 15.18916
45.88000, 18.65318
45.91000, 23.23911
45.94000, 24.93698
45.97000, 29.05769
46.00000, 36.74639
46.03000, 39.33678
46.06000, 41.87178
46.09000, 46.16104
46.12000, 43.66366
46.15000, 42.52617
46.18000, 42.85110
46.21000, 44.99866
46.24000, 45.91941
46.27000, 44.93941
46.30000, 44.26638
46.33000, 42.46678
46.36000, 40.07675
46.39000, 37.68243
46.42000, 34.57610
46.45000, 32.58011
46.48000, 30.85412
46.51000, 34.45614
46.54000, 35.54417
46.57000, 33.87324
46.60000, 32.02431
46.63000, 28.08540
46.66000, 23.84699
46.69000, 19.45354
46.72000, 17.03496
46.75000, 16.56094
46.78000, 18.24442
46.81000, 17.42913
46.84000, 17.01987
46.87000, 19.33664
46.90000, 20.31946
46.93000, 21.28230
46.96000, 21.38519
46.99000, 22.46512
47.02000, 22.18108
47.05000, 23.23509
47.08000, 27.92635
47.11000, 37.58547
47.14000, 41.64923
47.17000, 41.61215
47.20000, 43.84541
47.23000, 45.91071
47.26000, 45.75105
47.29000, 47.17944
47.32000, 47.16370
47.35000, 48.26142
47.38000, 46.31200
47.41000, 44.96263
47.44000, 43.26033
47.47000, 40.40411
47.50000, 37.55494
47.53000, 41.96384
47.56000, 43.86080
47.59000, 40.76669
47.62000, 39.60909
47.65000, 34.01118
47.68000, 28.64039
47.71000, 28.02968
47.74000, 23.58205
47.77000, 19.63847
47.80000, 18.29996
47.83000, 15.90854
47.86000, 14.02718
47.89000, 9.246605
47.92000, 6.563797
47.95000, 7.020569
47.98000, 10.90173
48.01000, 11.98752
48.04000, 10.31660
48.07000, 10.70146
48.10000, 9.114182
48.13000, 7.673470
48.16000, 8.342125
48.19000, 8.481232
48.22000, 5.397911
48.25000, 1.918869
48.28000, 1.742401
48.31000, 0.4062650
48.34000, 0.6830900
48.37000, 8.5570998E-02
48.40000, 2.1407999E-02
48.43000, 2.120064
48.46000, 4.020432
48.49000, 5.583832
48.52000, 5.360085
48.55000, 5.569542
48.58000, 2.995171
48.61000, 3.327873
48.64000, 0.7232890
48.67000, 3.244026
48.70000, 4.649071
48.73000, 6.988754
48.76000, 9.725281
48.79000, 11.63180
48.82000, 13.22443
48.85000, 16.81995
48.88000, 19.91892
48.91000, 23.01062
48.94000, 27.04247
48.97000, 28.84818
49.00000, 30.65772
49.03000, 34.46374
49.06000, 36.96374
49.09000, 36.05270
49.12000, 37.13808
49.15000, 39.70996
49.18000, 37.27518
49.21000, 40.10329
49.24000, 42.42954
49.27000, 42.02397
49.30000, 41.45853
49.33000, 43.91629
49.36000, 44.98119
49.39000, 43.20724
49.42000, 40.75147
49.45000, 43.94085
49.48000, 47.25040
49.51000, 44.68876
49.54000, 40.55804
49.57000, 37.41322
49.60000, 33.49615
49.63000, 34.25852
49.66000, 36.18947
49.69000, 38.15108
49.72000, 37.83504
49.75000, 40.03236
49.78000, 37.17474
49.81000, 37.29817
49.84000, 36.42691
49.87000, 41.49000
49.90000, 36.90464
49.93000, 37.16546
49.96000, 38.51643
49.99000, 33.44389
50.02000, 28.15464
50.05000, 27.24757
50.08000, 28.59465
50.11000, 27.93391
50.14000, 25.57334
50.17000, 24.06094
50.20000, 22.01140
50.23000, 21.63063
50.26000, 18.15572
50.29000, 17.33100
50.32000, 16.95944
50.35000, 18.23310
50.38000, 19.88602
50.41000, 19.31075
50.44000, 17.19964
50.47000, 14.41528
50.50000, 8.020966
50.53000, 5.993607
50.56000, 4.971817
50.59000, 3.068848
50.62000, 0.7220840
50.65000, 0.3944400
50.68000, 0.9789350
50.71000, 1.072830
50.74000, 2.911217
50.77000, 1.446503
50.80000, 4.159889
50.83000, 0.8853380
50.86000, 0.3595890
50.89000, 1.992828
50.92000, 3.563934
50.95000, 6.173386
50.98000, 6.194756
51.01000, 7.307251
51.04000, 10.23589
51.07000, 9.251244
51.10000, 3.311760
51.13000, 1.820992
51.16000, 1.439880
51.19000, 0.2873990
51.22000, 0.5468600
51.25000, 3.127701
51.28000, 4.516289
51.31000, 4.183853
51.34000, 3.062164
51.37000, 1.093422
51.40000, 1.831711
51.43000, 1.328804
51.46000, 1.696304
51.49000, 2.942497
51.52000, 3.436493
51.55000, 0.3915940
51.58000, 4.226608
51.61000, 3.374580
51.64000, 0.7542190
51.67000, 3.555527
51.70000, 2.966850
51.73000, 1.415634
51.76000, 2.540901
51.79000, 3.604477
51.82000, 2.521843
51.85000, 2.079323
51.88000, 2.497993
51.91000, 2.145805
51.94000, 1.224686
51.97000, 1.706299
52.00000, 1.074615
52.03000, 3.731232
52.06000, 5.071327
52.09000, 5.417435
52.12000, 5.699448
52.15000, 5.009384
52.18000, 7.958870
52.21000, 12.21997
52.24000, 18.86303
52.27000, 24.24245
52.30000, 26.80373
52.33000, 30.09509
52.36000, 32.54671
52.39000, 34.56141
52.42000, 34.91115
52.45000, 30.86196
52.48000, 30.54884
52.51000, 26.67773
52.54000, 27.81066
52.57000, 26.77433
52.60000, 30.12366
52.63000, 26.53571
52.66000, 25.70097
52.69000, 25.05162
52.72000, 24.97639
52.75000, 24.28254
52.78000, 25.77292
52.81000, 24.92729
52.84000, 23.10065
52.87000, 19.34308
52.90000, 16.56279
52.93000, 15.66717
52.96000, 17.56021
52.99000, 20.22572
53.02000, 16.36652
53.05000, 16.71857
53.08000, 13.58943
53.11000, 12.80625
53.14000, 11.84894
53.17000, 10.77950
53.20000, 6.137589
53.23000, 5.872444
53.26000, 2.564384
53.29000, 3.055176
53.32000, 2.074562
53.35000, 1.200150
53.38000, 1.054214
53.41000, 3.056046
53.44000, 7.672470
53.47000, 9.978455
53.50000, 13.28260
53.53000, 13.20954
53.56000, 11.86807
53.59000, 12.46053
53.62000, 9.920143
53.65000, 4.864914
53.68000, 3.511307
53.71000, 4.979759
53.74000, 6.543434
53.77000, 5.312950
53.80000, 6.837395
53.83000, 6.170952
53.86000, 9.322144
53.89000, 11.01558
53.92000, 9.500824
53.95000, 9.969070
53.98000, 4.036522
54.01000, 7.013153
54.04000, 7.549370
54.07000, 4.828949
54.10000, 6.527359
54.13000, 5.250999
54.16000, 3.552116
54.19000, 4.470367
54.22000, 4.167534
54.25000, 6.639397
54.28000, 10.35226
54.31000, 10.84715
54.34000, 12.31596
54.37000, 14.67184
54.40000, 11.76330
54.43000, 10.76606
54.46000, 13.31565
54.49000, 12.27915
54.52000, 10.21223
54.55000, 10.34217
54.58000, 11.02614
54.61000, 9.725266
54.64000, 11.99354
54.67000, 11.41592
54.70000, 10.73946
54.73000, 9.336632
54.76000, 6.814255
54.79000, 8.257729
54.82000, 9.480446
54.85000, 7.638840
54.88000, 6.743538
54.91000, 9.652908
54.94000, 7.752037
54.97000, 10.50959
55.00000, 6.560822
55.03000, 8.014618
55.06000, 6.156944
55.09000, 8.275246
55.12000, 9.959137
55.15000, 8.068817
55.18000, 7.515816
55.21000, 7.948784
55.24000, 7.608139
55.27000, 6.870895
55.30000, 8.192825
55.33000, 10.18956
55.36000, 9.914322
55.39000, 8.755470
55.42000, 6.708656
55.45000, 2.006645
55.48000, 1.811699
55.51000, 2.794678
55.54000, 3.206337
55.57000, 0.7943650
55.60000, 0.2012560
55.63000, 2.630112
55.66000, 3.323425
55.69000, 4.058510
55.72000, 4.116463
55.75000, 4.840797
55.78000, 6.611496
55.81000, 7.740265
55.84000, 8.431198
55.87000, 9.373795
55.90000, 10.14778
55.93000, 9.419128
55.96000, 11.54215
55.99000, 11.96623
56.02000, 12.48650
56.05000, 16.85568
56.08000, 18.35928
56.11000, 18.34585
56.14000, 19.01351
56.17000, 19.78718
56.20000, 20.26559
56.23000, 23.88425
56.26000, 28.21241
56.29000, 30.11574
56.32000, 31.33413
56.35000, 30.44612
56.38000, 28.03130
56.41000, 28.11661
56.44000, 26.08044
56.47000, 25.71743
56.50000, 30.28843
56.53000, 34.26484
56.56000, 36.58987
56.59000, 35.23171
56.62000, 36.03405
56.65000, 33.58904
56.68000, 31.90367
56.71000, 33.53122
56.74000, 35.94937
56.77000, 33.91813
56.80000, 31.57250
56.83000, 29.57577
56.86000, 25.64345
56.89000, 23.12574
56.92000, 17.68903
56.95000, 12.83820
56.98000, 9.369995
57.01000, 9.505272
57.04000, 10.90462
57.07000, 8.873207
57.10000, 8.402100
57.13000, 10.20607
57.16000, 11.67509
57.19000, 9.352982
57.22000, 9.422623
57.25000, 12.34508
57.28000, 13.07608
57.31000, 10.45949
57.34000, 6.164886
57.37000, 7.488449
57.40000, 8.925697
57.43000, 4.422920
57.46000, 4.597832
57.49000, 2.986000
57.52000, 1.460281
57.55000, 1.300941
57.58000, 2.598320
57.61000, 1.632896
57.64000, 6.197166
57.67000, 4.912453
57.70000, 3.665596
57.73000, 0.8602680
57.76000, 1.661049
57.79000, 1.642334
57.82000, 3.029404
57.85000, 3.095398
57.88000, 3.850487
57.91000, 2.620171
57.94000, 0.4215160
57.97000, 2.660027
58.00000, 2.057663
58.03000, 0.9944920
58.06000, 3.409904
58.09000, 5.775513
58.12000, 6.107376
58.15000, 5.118362
58.18000, 7.058380
58.21000, 6.734138
58.24000, 4.211899
58.27000, 6.732262
58.30000, 8.775375
58.33000, 4.402725
58.36000, 1.908096
58.39000, 0.5661770
58.42000, 0.8575820
58.45000, 3.265411
58.48000, 4.960670
58.51000, 4.725357
58.54000, 1.780022
58.57000, 1.392273
58.60000, 1.991089
58.63000, 5.935211
58.66000, 11.39832
58.69000, 11.01846
58.72000, 11.38301
58.75000, 13.67606
58.78000, 12.30471
58.81000, 8.805412
58.84000, 4.712410
58.87000, 3.109421
58.90000, 1.992722
58.93000, 5.051659
58.96000, 2.175751
58.99000, 4.927406
59.02000, 5.714272
59.05000, 2.274498
59.08000, 4.8950002E-02
59.11000, 3.152161
59.14000, 5.999260
59.17000, 5.718155
59.20000, 9.774048
59.23000, 17.12912
59.26000, 16.55234
59.29000, 17.48004
59.32000, 21.24452
59.35000, 19.54049
59.38000, 17.92477
59.41000, 20.66757
59.44000, 22.30996
59.47000, 13.77728
59.50000, 12.61685
59.53000, 17.07013
59.56000, 16.29514
59.59000, 17.28667
59.62000, 18.10728
59.65000, 18.61387
59.68000, 16.90873
59.71000, 17.45225
59.74000, 16.84633
59.77000, 15.82011
59.80000, 15.65327
59.83000, 14.56571
59.86000, 16.20287
59.89000, 15.53033
59.92000, 16.43695
59.95000, 19.65303
59.98000, 16.23526
60.01000, 11.50319
60.04000, 13.03309
60.07000, 8.570793
60.10000, 6.120438
60.13000, 4.900406
60.16000, 3.565842
60.19000, 3.339348
60.22000, 3.031364
60.25000, 3.631241
60.28000, 3.205589
60.31000, 3.097374
60.34000, 2.583359
60.37000, 3.235565
60.40000, 4.050522
60.43000, 3.238594
60.46000, 5.183075
60.49000, 5.400063
60.52000, 3.207588
60.55000, 3.523651
60.58000, 2.996559
60.61000, 3.548080
60.64000, 4.392738
60.67000, 2.594864
60.70000, 1.684525
60.73000, 1.740250
60.76000, 2.682243
60.79000, 7.139832
60.82000, 7.527168
60.85000, 4.624794
60.88000, 4.829460
60.91000, 10.00793
60.94000, 12.35483
60.97000, 12.52477
61.00000, 15.19546
61.03000, 14.94377
61.06000, 11.60186
61.09000, 11.31788
61.12000, 12.41850
61.15000, 9.599625
61.18000, 7.621567
61.21000, 10.30625
61.24000, 11.98690
61.27000, 10.21620
61.30000, 9.634834
61.33000, 8.694664
61.36000, 7.351166
61.39000, 7.920082
61.42000, 7.540848
61.45000, 5.040161
61.48000, 3.374542
61.51000, 4.5212001E-02
61.54000, 0.0000000E+00
##END=



