##NAMES=Slavikite
##RRUFFID=R080048
##IDEAL CHEMISTRY=(H_3_O)^1+^_3_Mg_6_Fe^3+^_15_(S^6+^O_4_)_21_(OH)_18_&#183;98H_2_O
##LOCALITY=Mandat, Bohmen, Czech Republic
##OWNER=RRUFF
##SOURCE=Michael Scott
##DESCRIPTION=Mustard yellow, massive efflorescence
##DIFFRACTION SAMPLE DESCRIPTION=Powder, using Mo radiation
##STATUS=The identification of this mineral is not yet confirmed.
##URL=rruff.info/R080048
5.470000, 0.0000000E+00
5.490000, 11.17026
5.510000, 59.36560
5.530000, 129.9696
5.550000, 225.5680
5.570000, 334.9863
5.590000, 453.2927
5.610000, 575.8181
5.630000, 690.5428
5.650000, 801.9777
5.670000, 907.0236
5.690000, 1009.622
5.710000, 1089.900
5.730000, 1150.664
5.750000, 1171.880
5.770000, 1156.940
5.790000, 1105.839
5.810000, 1043.310
5.830000, 961.9299
5.850000, 865.3825
5.870000, 769.9929
5.890000, 671.3286
5.910000, 559.7673
5.930000, 447.4653
5.950000, 337.4057
5.970000, 234.4209
5.990000, 156.8119
6.010000, 102.3435
6.030000, 74.87292
6.050000, 57.30484
6.070000, 36.78021
6.090000, 18.63406
6.110000, 8.657318
6.130000, 4.546570
6.150000, 0.2769470
6.170000, 2.452332
6.190000, 5.120453
6.210000, 11.72849
6.230000, 15.68436
6.250000, 19.93375
6.270000, 23.05264
6.290000, 22.82388
6.310000, 24.20026
6.330000, 19.73328
6.350000, 14.40707
6.370000, 10.45786
6.390000, 4.031860
6.410000, 1.204620
6.430000, 8.920593
6.450000, 26.51624
6.470000, 43.94238
6.490000, 50.37262
6.510000, 64.39661
6.530000, 91.78940
6.550000, 121.5088
6.570000, 159.6060
6.590000, 192.6641
6.610000, 212.4890
6.630000, 234.5085
6.650000, 249.5290
6.670000, 257.3808
6.690000, 265.3864
6.710000, 265.2178
6.730000, 259.8731
6.750000, 257.5874
6.770000, 262.0252
6.790000, 274.1725
6.810000, 304.9474
6.830000, 348.2467
6.850000, 419.5540
6.870000, 537.6574
6.890000, 703.0801
6.910000, 912.2964
6.930000, 1170.783
6.950000, 1458.810
6.970000, 1785.758
6.990000, 2095.518
7.010000, 2401.907
7.030000, 2688.496
7.050000, 2912.286
7.070000, 3078.292
7.090000, 3162.852
7.110000, 3154.635
7.130000, 3049.405
7.150000, 2860.318
7.170000, 2633.478
7.190000, 2366.242
7.210000, 2062.331
7.230000, 1744.557
7.250000, 1429.477
7.270000, 1162.102
7.290000, 916.7417
7.310000, 715.6042
7.330000, 551.9297
7.350000, 422.9087
7.370000, 327.3468
7.390000, 256.5845
7.410000, 213.1549
7.430000, 177.7176
7.450000, 152.3718
7.470000, 137.4075
7.490000, 127.8664
7.510000, 122.8179
7.530000, 113.3710
7.550000, 102.9735
7.570000, 94.79684
7.590000, 86.02664
7.610000, 85.05597
7.630000, 81.71780
7.650000, 85.61890
7.670000, 83.79941
7.690000, 83.43365
7.710000, 87.27740
7.730000, 87.21292
7.750000, 79.13016
7.770000, 72.87881
7.790000, 62.50687
7.810000, 52.88928
7.830000, 48.34927
7.850000, 45.60385
7.870000, 39.35965
7.890000, 35.43622
7.910000, 31.21838
7.930000, 32.95554
7.950000, 33.66742
7.970000, 32.18695
7.990000, 32.98370
8.010000, 30.97491
8.030000, 30.21487
8.050000, 26.24905
8.070000, 24.30374
8.090000, 20.28302
8.110000, 22.77612
8.130000, 25.90244
8.150000, 23.35422
8.170000, 25.52444
8.190000, 34.44180
8.210000, 49.48474
8.230000, 63.81406
8.250000, 78.14938
8.270000, 85.15408
8.290000, 89.53683
8.310000, 88.53610
8.330000, 87.47574
8.350000, 92.13864
8.370000, 97.98709
8.390000, 96.35950
8.410000, 95.13745
8.430000, 91.89841
8.450000, 84.06601
8.470000, 79.58591
8.490000, 72.11581
8.510000, 63.69339
8.530000, 55.96805
8.550000, 50.05701
8.570000, 44.87204
8.590000, 34.19742
8.610000, 37.35788
8.630000, 36.01508
8.650000, 33.66760
8.670000, 39.36856
8.690000, 40.58157
8.710000, 36.44635
8.730000, 41.49927
8.750000, 39.65240
8.770000, 35.93069
8.790000, 31.82312
8.810000, 28.02069
8.830000, 28.36377
8.850000, 33.85519
8.870000, 31.61511
8.890000, 24.65460
8.910000, 15.70175
8.930000, 14.41861
8.950000, 13.18396
8.970000, 4.515533
8.990000, 3.101990
9.010000, 11.50238
9.030000, 13.44449
9.050000, 20.42227
9.070000, 13.59186
9.090000, 8.098572
9.110000, 2.928955
9.130000, 4.565643
9.150000, 6.485077
9.170000, 6.649384
9.190000, 9.234009
9.210000, 11.67438
9.230000, 12.27835
9.250000, 15.32291
9.270000, 14.38687
9.290000, 13.76187
9.310000, 9.587769
9.330000, 5.735260
9.350000, 6.870331
9.370000, 1.147125
9.390000, 3.106873
9.410000, 8.383789
9.430000, 14.85840
9.450000, 24.06277
9.470000, 31.87820
9.490000, 38.21194
9.510000, 42.21490
9.530000, 44.49924
9.550000, 44.21704
9.570000, 39.31934
9.590000, 25.75894
9.610000, 17.04633
9.630000, 13.77542
9.650000, 11.04654
9.670000, 11.03983
9.690000, 9.441772
9.710000, 5.561676
9.730000, 6.059937
9.750000, 1.467407
9.770000, 8.897278
9.790000, 10.64615
9.810000, 12.14069
9.830000, 12.02328
9.850000, 13.78159
9.870000, 11.00250
9.890000, 4.240204
9.910000, 5.161133
9.930000, 13.95676
9.950000, 21.17783
9.970000, 34.23746
9.990000, 42.43930
10.01000, 57.27029
10.03000, 64.23920
10.05000, 69.62979
10.07000, 84.16537
10.09000, 98.73224
10.11000, 118.8704
10.13000, 144.5571
10.15000, 172.2947
10.17000, 208.0165
10.19000, 247.7164
10.21000, 291.3087
10.23000, 338.2265
10.25000, 382.8767
10.27000, 433.9185
10.29000, 469.9482
10.31000, 505.3289
10.33000, 530.0106
10.35000, 547.9161
10.37000, 541.8208
10.39000, 518.3027
10.41000, 493.3223
10.43000, 451.8457
10.45000, 398.2679
10.47000, 327.7669
10.49000, 242.7830
10.51000, 175.9473
10.53000, 112.3058
10.55000, 67.15408
10.57000, 28.40677
10.59000, 11.21530
10.61000, 1.177307
10.63000, 6.191650
10.65000, 8.403229
10.67000, 6.488678
10.69000, 2.250549
10.71000, 5.956940
10.73000, 20.42609
10.75000, 39.20087
10.77000, 60.56027
10.79000, 73.76935
10.81000, 83.70804
10.83000, 98.50253
10.85000, 112.9257
10.87000, 123.6877
10.89000, 121.9134
10.91000, 110.4749
10.93000, 98.52161
10.95000, 88.56635
10.97000, 75.42889
10.99000, 55.98279
11.01000, 39.27780
11.03000, 27.95190
11.05000, 15.03821
11.07000, 2.369507
11.09000, 2.595703
11.11000, 4.943207
11.13000, 13.25284
11.15000, 42.07120
11.17000, 87.37427
11.19000, 142.4335
11.21000, 226.0185
11.23000, 331.4350
11.25000, 456.2529
11.27000, 598.2743
11.29000, 754.5282
11.31000, 918.4243
11.33000, 1067.567
11.35000, 1205.556
11.37000, 1339.391
11.39000, 1457.060
11.41000, 1541.567
11.43000, 1584.209
11.45000, 1587.520
11.47000, 1550.836
11.49000, 1475.464
11.51000, 1368.875
11.53000, 1227.071
11.55000, 1052.534
11.57000, 906.0955
11.59000, 767.8451
11.61000, 635.5030
11.63000, 511.3241
11.65000, 395.5341
11.67000, 293.1049
11.69000, 211.1102
11.71000, 142.4400
11.73000, 80.97568
11.75000, 37.78625
11.77000, 11.00757
11.79000, 3.632141
11.81000, 11.69162
11.83000, 14.03485
11.85000, 6.749329
11.87000, 4.625824
11.89000, 26.29950
11.91000, 53.36227
11.93000, 84.23224
11.95000, 138.8343
11.97000, 212.7896
11.99000, 301.6221
12.01000, 421.6499
12.03000, 557.8200
12.05000, 727.8970
12.07000, 904.4901
12.09000, 1075.417
12.11000, 1248.844
12.13000, 1382.608
12.15000, 1503.563
12.17000, 1573.221
12.19000, 1605.357
12.21000, 1615.228
12.23000, 1558.535
12.25000, 1462.478
12.27000, 1357.844
12.29000, 1222.519
12.31000, 1101.471
12.33000, 994.6799
12.35000, 942.1644
12.37000, 955.1249
12.39000, 1034.592
12.41000, 1205.335
12.43000, 1393.354
12.45000, 1614.310
12.47000, 1870.513
12.49000, 2076.112
12.51000, 2297.307
12.53000, 2432.869
12.55000, 2531.838
12.57000, 2541.814
12.59000, 2475.815
12.61000, 2348.875
12.63000, 2163.420
12.65000, 1889.602
12.67000, 1629.041
12.69000, 1311.386
12.71000, 1039.825
12.73000, 779.3251
12.75000, 559.5891
12.77000, 398.2788
12.79000, 258.5439
12.81000, 168.9644
12.83000, 101.9498
12.85000, 62.77686
12.87000, 42.60773
12.89000, 30.00720
12.91000, 26.27252
12.93000, 24.65057
12.95000, 28.11749
12.97000, 41.20917
12.99000, 60.41943
13.01000, 78.99274
13.03000, 108.9313
13.05000, 156.6476
13.07000, 216.1835
13.09000, 290.7435
13.11000, 401.3016
13.13000, 524.5395
13.15000, 696.5290
13.17000, 878.9253
13.19000, 1112.259
13.21000, 1373.408
13.23000, 1623.975
13.25000, 1905.989
13.27000, 2178.039
13.29000, 2442.537
13.31000, 2663.440
13.33000, 2830.191
13.35000, 2920.229
13.37000, 2961.445
13.39000, 2933.895
13.41000, 2848.204
13.43000, 2716.339
13.45000, 2589.471
13.47000, 2447.310
13.49000, 2355.817
13.51000, 2291.158
13.53000, 2274.758
13.55000, 2291.233
13.57000, 2310.726
13.59000, 2359.466
13.61000, 2420.662
13.63000, 2481.404
13.65000, 2503.444
13.67000, 2504.580
13.69000, 2493.683
13.71000, 2459.853
13.73000, 2395.269
13.75000, 2290.683
13.77000, 2146.395
13.79000, 2037.868
13.81000, 1944.372
13.83000, 1855.959
13.85000, 1760.931
13.87000, 1659.937
13.89000, 1564.173
13.91000, 1462.420
13.93000, 1342.056
13.95000, 1240.804
13.97000, 1110.815
13.99000, 994.9680
14.01000, 899.8243
14.03000, 817.6183
14.05000, 771.6745
14.07000, 734.0616
14.09000, 727.2799
14.11000, 722.8104
14.13000, 729.9122
14.15000, 741.8931
14.17000, 765.4391
14.19000, 777.3248
14.21000, 781.2469
14.23000, 766.7272
14.25000, 738.7967
14.27000, 693.3481
14.29000, 665.9161
14.31000, 664.6003
14.33000, 671.8407
14.35000, 707.3075
14.37000, 760.3904
14.39000, 847.9297
14.41000, 943.5051
14.43000, 1053.274
14.45000, 1161.475
14.47000, 1250.684
14.49000, 1324.182
14.51000, 1371.768
14.53000, 1396.635
14.55000, 1380.822
14.57000, 1327.473
14.59000, 1244.827
14.61000, 1137.591
14.63000, 1024.014
14.65000, 911.5089
14.67000, 802.9273
14.69000, 719.0795
14.71000, 647.3329
14.73000, 587.3672
14.75000, 531.8006
14.77000, 506.1411
14.79000, 484.5271
14.81000, 453.0308
14.83000, 429.1329
14.85000, 393.9081
14.87000, 335.1608
14.89000, 272.4266
14.91000, 225.8923
14.93000, 187.3670
14.95000, 148.9307
14.97000, 106.2161
14.99000, 65.08521
15.01000, 32.42017
15.03000, 5.626831
15.05000, 5.931885
15.07000, 13.00958
15.09000, 18.90433
15.11000, 16.25934
15.13000, 17.76562
15.15000, 27.69778
15.17000, 34.71384
15.19000, 43.35385
15.21000, 44.98291
15.23000, 30.77594
15.25000, 17.30051
15.27000, 7.778687
15.29000, 37.45898
15.31000, 68.18427
15.33000, 94.28964
15.35000, 121.4900
15.37000, 151.6232
15.39000, 187.4323
15.41000, 202.4805
15.43000, 213.0309
15.45000, 211.5147
15.47000, 210.4806
15.49000, 196.4294
15.51000, 181.2420
15.53000, 156.6720
15.55000, 136.2167
15.57000, 108.1610
15.59000, 75.29300
15.61000, 46.31232
15.63000, 30.08987
15.65000, 23.57669
15.67000, 33.60266
15.69000, 42.24265
15.71000, 55.63080
15.73000, 81.05289
15.75000, 112.4568
15.77000, 155.1348
15.79000, 192.0795
15.81000, 233.0289
15.83000, 277.0064
15.85000, 330.0352
15.87000, 376.9256
15.89000, 431.6416
15.91000, 486.4542
15.93000, 538.4221
15.95000, 593.9085
15.97000, 647.8371
15.99000, 685.2380
16.01000, 701.2213
16.03000, 721.8867
16.05000, 714.9141
16.07000, 677.7537
16.09000, 647.5955
16.11000, 610.6390
16.13000, 548.1944
16.15000, 478.4567
16.17000, 397.8150
16.19000, 328.9538
16.21000, 265.7844
16.23000, 213.4824
16.25000, 155.8481
16.27000, 99.22702
16.29000, 62.15930
16.31000, 32.81378
16.33000, 8.695496
16.35000, 6.549683
16.37000, 10.37018
16.39000, 7.883759
16.41000, 9.864685
16.43000, 7.517670
16.45000, 13.86987
16.47000, 16.59869
16.49000, 30.78018
16.51000, 47.02716
16.53000, 63.39838
16.55000, 70.32834
16.57000, 74.68372
16.59000, 72.91931
16.61000, 73.37241
16.63000, 71.52997
16.65000, 67.32968
16.67000, 62.63153
16.69000, 55.62155
16.71000, 44.34772
16.73000, 33.87204
16.75000, 22.37741
16.77000, 13.53177
16.79000, 7.733002
16.81000, 5.178314
16.83000, 0.3652950
16.85000, 1.447418
16.87000, 3.557709
16.89000, 4.939087
16.91000, 8.524292
16.93000, 3.760468
16.95000, 0.6596070
16.97000, 4.345825
16.99000, 13.11292
17.01000, 24.69819
17.03000, 45.51007
17.05000, 62.53116
17.07000, 91.30411
17.09000, 120.6114
17.11000, 149.6252
17.13000, 189.0031
17.15000, 224.9141
17.17000, 263.5523
17.19000, 310.1012
17.21000, 352.8873
17.23000, 388.0224
17.25000, 425.3618
17.27000, 466.9035
17.29000, 493.3171
17.31000, 518.7074
17.33000, 524.3605
17.35000, 523.5743
17.37000, 503.5696
17.39000, 473.1687
17.41000, 436.4274
17.43000, 392.1505
17.45000, 346.4531
17.47000, 310.5483
17.49000, 273.3923
17.51000, 254.6539
17.53000, 241.0347
17.55000, 226.0156
17.57000, 227.0791
17.59000, 238.6176
17.61000, 252.1321
17.63000, 271.2612
17.65000, 289.8990
17.67000, 331.2920
17.69000, 370.6796
17.71000, 401.7879
17.73000, 439.5086
17.75000, 479.3341
17.77000, 520.6381
17.79000, 542.1237
17.81000, 561.9865
17.83000, 587.4882
17.85000, 594.5992
17.87000, 593.6075
17.89000, 587.2195
17.91000, 569.7228
17.93000, 532.0322
17.95000, 491.6591
17.97000, 455.5193
17.99000, 391.0668
18.01000, 330.6035
18.03000, 271.7386
18.05000, 219.7145
18.07000, 178.6976
18.09000, 135.5038
18.11000, 105.8259
18.13000, 90.25812
18.15000, 71.88434
18.17000, 56.65955
18.19000, 44.67078
18.21000, 42.39899
18.23000, 52.92410
18.25000, 67.74829
18.27000, 85.84351
18.29000, 112.8248
18.31000, 140.1783
18.33000, 176.8207
18.35000, 229.2670
18.37000, 293.9974
18.39000, 363.4338
18.41000, 430.8891
18.43000, 500.3093
18.45000, 565.8984
18.47000, 626.2403
18.49000, 677.6871
18.51000, 706.5258
18.53000, 717.0491
18.55000, 713.7873
18.57000, 688.9600
18.59000, 643.2977
18.61000, 593.0302
18.63000, 541.9232
18.65000, 469.1309
18.67000, 395.0442
18.69000, 309.3311
18.71000, 242.8077
18.73000, 178.3398
18.75000, 119.3230
18.77000, 76.60065
18.79000, 42.46573
18.81000, 21.31851
18.83000, 0.2129210
18.85000, 13.21237
18.87000, 22.37045
18.89000, 21.83911
18.91000, 12.68008
18.93000, 4.065582
18.95000, 18.75687
18.97000, 54.09210
18.99000, 86.44394
19.01000, 123.7984
19.03000, 170.0894
19.05000, 215.2301
19.07000, 249.2653
19.09000, 272.4471
19.11000, 298.3225
19.13000, 313.1775
19.15000, 324.2390
19.17000, 326.6571
19.19000, 318.0818
19.21000, 297.6900
19.23000, 257.0659
19.25000, 209.7292
19.27000, 166.9097
19.29000, 127.1290
19.31000, 98.07208
19.33000, 53.55923
19.35000, 24.12091
19.37000, 5.278992
19.39000, 14.00757
19.41000, 23.95032
19.43000, 34.65936
19.45000, 42.87033
19.47000, 40.44659
19.49000, 41.21768
19.51000, 34.21808
19.53000, 27.65051
19.55000, 19.76013
19.57000, 7.524597
19.59000, 1.512421
19.61000, 14.78006
19.63000, 33.47995
19.65000, 51.13885
19.67000, 78.06686
19.69000, 103.8870
19.71000, 134.6133
19.73000, 152.4798
19.75000, 183.5565
19.77000, 204.3984
19.79000, 221.9296
19.81000, 241.9740
19.83000, 261.3218
19.85000, 270.8482
19.87000, 284.1121
19.89000, 291.4440
19.91000, 291.3276
19.93000, 291.7497
19.95000, 287.4583
19.97000, 269.6115
19.99000, 266.6001
20.01000, 273.0997
20.03000, 276.4081
20.05000, 276.3885
20.07000, 273.4904
20.09000, 260.6166
20.11000, 240.6604
20.13000, 221.1248
20.15000, 206.2489
20.17000, 183.9307
20.19000, 159.2938
20.21000, 136.3618
20.23000, 106.6873
20.25000, 83.34207
20.27000, 68.91608
20.29000, 47.38779
20.31000, 35.09128
20.33000, 30.51120
20.35000, 34.16922
20.37000, 38.50775
20.39000, 39.88998
20.41000, 38.07907
20.43000, 40.87201
20.45000, 48.54187
20.47000, 64.18076
20.49000, 75.26965
20.51000, 96.46387
20.53000, 110.1163
20.55000, 121.2905
20.57000, 129.2476
20.59000, 137.1417
20.61000, 141.0618
20.63000, 145.8015
20.65000, 147.9410
20.67000, 155.5973
20.69000, 155.0154
20.71000, 172.6032
20.73000, 184.8794
20.75000, 198.8330
20.77000, 206.0811
20.79000, 215.9956
20.81000, 234.4366
20.83000, 246.9824
20.85000, 277.6494
20.87000, 282.3352
20.89000, 302.4785
20.91000, 323.6515
20.93000, 334.7333
20.95000, 346.1838
20.97000, 361.3850
20.99000, 366.4971
21.01000, 376.7269
21.03000, 392.9756
21.05000, 396.4972
21.07000, 404.9268
21.09000, 404.3922
21.11000, 389.8175
21.13000, 381.0750
21.15000, 367.0033
21.17000, 347.8591
21.19000, 346.8012
21.21000, 348.9969
21.23000, 338.8850
21.25000, 344.5144
21.27000, 349.3329
21.29000, 353.4299
21.31000, 367.8623
21.33000, 390.0157
21.35000, 411.5874
21.37000, 432.2835
21.39000, 457.9470
21.41000, 483.6386
21.43000, 505.8255
21.45000, 525.1217
21.47000, 538.5923
21.49000, 536.1953
21.51000, 545.9205
21.53000, 569.9411
21.55000, 595.2064
21.57000, 618.9341
21.59000, 653.6804
21.61000, 677.4755
21.63000, 716.5111
21.65000, 752.0471
21.67000, 776.5546
21.69000, 804.5936
21.71000, 824.0352
21.73000, 846.8484
21.75000, 863.6605
21.77000, 868.9348
21.79000, 867.7041
21.81000, 853.7050
21.83000, 823.7556
21.85000, 799.4484
21.87000, 756.2770
21.89000, 708.7321
21.91000, 671.5723
21.93000, 627.4218
21.95000, 598.7737
21.97000, 564.7021
21.99000, 515.7694
22.01000, 471.1900
22.03000, 400.2671
22.05000, 343.6399
22.07000, 282.7420
22.09000, 236.1173
22.11000, 186.7929
22.13000, 139.8138
22.15000, 104.0850
22.17000, 65.79956
22.19000, 33.12650
22.21000, 2.499908
22.23000, 16.34830
22.25000, 22.22867
22.27000, 24.24496
22.29000, 21.23608
22.31000, 5.679535
22.33000, 22.97546
22.35000, 51.49414
22.37000, 84.12744
22.39000, 125.3044
22.41000, 158.3680
22.43000, 189.7562
22.45000, 228.6230
22.47000, 261.4617
22.49000, 292.4961
22.51000, 314.2902
22.53000, 329.5941
22.55000, 336.2112
22.57000, 341.6528
22.59000, 349.6913
22.61000, 343.3557
22.63000, 342.3351
22.65000, 343.5597
22.67000, 327.8423
22.69000, 311.9035
22.71000, 304.2676
22.73000, 293.8553
22.75000, 290.5370
22.77000, 292.7690
22.79000, 297.6891
22.81000, 310.5968
22.83000, 319.8087
22.85000, 328.8406
22.87000, 342.7043
22.89000, 354.3066
22.91000, 356.7476
22.93000, 364.4956
22.95000, 384.8288
22.97000, 400.9487
22.99000, 423.1036
23.01000, 441.2355
23.03000, 457.3590
23.05000, 474.6094
23.07000, 490.7429
23.09000, 502.5010
23.11000, 504.0426
23.13000, 505.4336
23.15000, 509.1871
23.17000, 523.2183
23.19000, 514.5639
23.21000, 502.0791
23.23000, 488.7561
23.25000, 449.0847
23.27000, 408.8629
23.29000, 373.7200
23.31000, 335.9239
23.33000, 302.7020
23.35000, 264.9357
23.37000, 238.4329
23.39000, 205.0010
23.41000, 173.3370
23.43000, 139.6310
23.45000, 102.3699
23.47000, 76.07086
23.49000, 55.39279
23.51000, 57.88074
23.53000, 69.80383
23.55000, 89.66699
23.57000, 110.8883
23.59000, 136.7230
23.61000, 169.3143
23.63000, 205.8401
23.65000, 225.7118
23.67000, 247.8067
23.69000, 272.7869
23.71000, 290.5139
23.73000, 307.1026
23.75000, 315.6555
23.77000, 312.5530
23.79000, 305.6620
23.81000, 284.5725
23.83000, 254.5667
23.85000, 242.0636
23.87000, 225.4711
23.89000, 213.0296
23.91000, 212.1530
23.93000, 223.8003
23.95000, 240.1436
23.97000, 252.3268
23.99000, 264.0761
24.01000, 278.9063
24.03000, 301.6647
24.05000, 327.8541
24.07000, 344.6536
24.09000, 366.0201
24.11000, 379.5127
24.13000, 389.6253
24.15000, 390.8622
24.17000, 374.3496
24.19000, 354.7498
24.21000, 335.1732
24.23000, 301.5515
24.25000, 275.9222
24.27000, 235.5834
24.29000, 190.3875
24.31000, 153.3404
24.33000, 117.6185
24.35000, 104.5327
24.37000, 100.7858
24.39000, 101.8093
24.41000, 118.5350
24.43000, 138.8774
24.45000, 166.2910
24.47000, 200.1079
24.49000, 248.4370
24.51000, 282.3604
24.53000, 304.9161
24.55000, 338.0790
24.57000, 367.3592
24.59000, 383.8297
24.61000, 397.0074
24.63000, 402.8752
24.65000, 396.3014
24.67000, 381.5905
24.69000, 358.6869
24.71000, 323.9687
24.73000, 268.0313
24.75000, 224.4993
24.77000, 173.5700
24.79000, 140.1541
24.81000, 117.4968
24.83000, 86.76593
24.85000, 65.27866
24.87000, 42.78787
24.89000, 34.59053
24.91000, 17.70212
24.93000, 25.92377
24.95000, 28.24628
24.97000, 22.16867
24.99000, 20.37109
25.01000, 10.10263
25.03000, 9.0240002E-02
25.05000, 7.488617
25.07000, 16.85373
25.09000, 32.49698
25.11000, 33.02716
25.13000, 34.88727
25.15000, 41.93814
25.17000, 35.82764
25.19000, 31.02469
25.21000, 31.56537
25.23000, 17.37363
25.25000, 4.840485
25.27000, 3.291107
25.29000, 17.28049
25.31000, 23.29971
25.33000, 28.06854
25.35000, 37.18130
25.37000, 48.71841
25.39000, 48.94095
25.41000, 35.05798
25.43000, 22.22833
25.45000, 7.536621
25.47000, 11.07861
25.49000, 30.87741
25.51000, 61.22086
25.53000, 85.12787
25.55000, 118.7576
25.57000, 164.3529
25.59000, 202.1299
25.61000, 225.1005
25.63000, 228.6658
25.65000, 233.9487
25.67000, 242.2032
25.69000, 240.0225
25.71000, 216.3105
25.73000, 205.2030
25.75000, 199.8624
25.77000, 182.2043
25.79000, 165.3820
25.81000, 146.1204
25.83000, 116.6024
25.85000, 96.68918
25.87000, 73.94666
25.89000, 54.17258
25.91000, 38.43414
25.93000, 21.75443
25.95000, 11.31381
25.97000, 1.672913
25.99000, 6.595551
26.01000, 1.880463
26.03000, 6.990906
26.05000, 29.44049
26.07000, 63.84656
26.09000, 92.22461
26.11000, 138.1542
26.13000, 184.6163
26.15000, 240.4582
26.17000, 306.7883
26.19000, 397.9012
26.21000, 464.7845
26.23000, 532.9971
26.25000, 614.5795
26.27000, 684.3254
26.29000, 727.5742
26.31000, 770.5601
26.33000, 801.6920
26.35000, 818.4881
26.37000, 832.5378
26.39000, 852.1608
26.41000, 850.7175
26.43000, 852.8124
26.45000, 830.6210
26.47000, 836.8277
26.49000, 828.5980
26.51000, 812.1516
26.53000, 771.9589
26.55000, 726.1289
26.57000, 695.2128
26.59000, 648.5497
26.61000, 603.5002
26.63000, 574.3334
26.65000, 543.3299
26.67000, 499.2693
26.69000, 463.6238
26.71000, 442.3941
26.73000, 424.0931
26.75000, 385.9870
26.77000, 366.0405
26.79000, 366.4296
26.81000, 360.7835
26.83000, 356.4398
26.85000, 355.0469
26.87000, 353.5746
26.89000, 375.1689
26.91000, 397.4058
26.93000, 394.9362
26.95000, 397.7811
26.97000, 393.8578
26.99000, 382.1068
27.01000, 388.6445
27.03000, 376.1110
27.05000, 350.9977
27.07000, 324.6569
27.09000, 304.5259
27.11000, 275.0414
27.13000, 250.0170
27.15000, 211.9149
27.17000, 163.8502
27.19000, 128.0998
27.21000, 94.66061
27.23000, 76.45880
27.25000, 51.10220
27.27000, 30.16891
27.29000, 11.48483
27.31000, 9.031921
27.33000, 7.290009
27.35000, 7.760620
27.37000, 13.94348
27.39000, 11.16345
27.41000, 14.70465
27.43000, 25.55573
27.45000, 40.55600
27.47000, 43.62579
27.49000, 60.62207
27.51000, 72.54895
27.53000, 83.61221
27.55000, 101.4230
27.57000, 135.4052
27.59000, 158.6878
27.61000, 185.7079
27.63000, 209.2083
27.65000, 227.7542
27.67000, 249.3279
27.69000, 261.8923
27.71000, 270.1812
27.73000, 281.0401
27.75000, 283.3001
27.77000, 278.2822
27.79000, 278.6749
27.81000, 268.8127
27.83000, 254.5280
27.85000, 229.5486
27.87000, 207.7783
27.89000, 187.8601
27.91000, 167.0320
27.93000, 143.0139
27.95000, 128.0218
27.97000, 108.9168
27.99000, 91.95981
28.01000, 67.52075
28.03000, 54.49673
28.05000, 49.78964
28.07000, 44.73849
28.09000, 41.30930
28.11000, 31.20392
28.13000, 36.71249
28.15000, 64.50305
28.17000, 94.55750
28.19000, 108.7168
28.21000, 137.8721
28.23000, 166.6343
28.25000, 207.0366
28.27000, 241.7112
28.29000, 277.1187
28.31000, 306.3119
28.33000, 324.8035
28.35000, 322.4213
28.37000, 325.3690
28.39000, 329.1127
28.41000, 319.6750
28.43000, 316.4333
28.45000, 294.6123
28.47000, 268.6498
28.49000, 245.5472
28.51000, 221.8439
28.53000, 185.0340
28.55000, 156.6720
28.57000, 126.5446
28.59000, 108.8666
28.61000, 89.07224
28.63000, 74.60907
28.65000, 61.54373
28.67000, 44.30389
28.69000, 33.30130
28.71000, 36.94073
28.73000, 40.13449
28.75000, 47.72510
28.77000, 59.46466
28.79000, 60.75882
28.81000, 66.39993
28.83000, 89.76593
28.85000, 111.6439
28.87000, 124.4385
28.89000, 147.0332
28.91000, 172.5287
28.93000, 191.1989
28.95000, 228.6770
28.97000, 262.4808
28.99000, 292.7285
29.01000, 293.6328
29.03000, 311.2889
29.05000, 323.9617
29.07000, 322.0162
29.09000, 324.8973
29.11000, 321.2261
29.13000, 319.1876
29.15000, 311.1297
29.17000, 288.1954
29.19000, 271.8597
29.21000, 245.6805
29.23000, 220.8060
29.25000, 205.2629
29.27000, 187.9794
29.29000, 160.9573
29.31000, 128.7169
29.33000, 97.47586
29.35000, 60.53030
29.37000, 41.37317
29.39000, 26.24155
29.41000, 10.10428
29.43000, 7.551392
29.45000, 7.349121
29.47000, 13.78922
29.49000, 2.573242
29.51000, 9.512299
29.53000, 9.290039
29.55000, 4.132019
29.57000, 7.938263
29.59000, 30.40964
29.61000, 54.20822
29.63000, 92.83292
29.65000, 110.3028
29.67000, 97.13962
29.69000, 94.90558
29.71000, 111.1848
29.73000, 121.1691
29.75000, 113.2283
29.77000, 112.2727
29.79000, 125.4380
29.81000, 111.5397
29.83000, 91.27795
29.85000, 88.18710
29.87000, 97.58722
29.89000, 100.8863
29.91000, 113.7472
29.93000, 116.9240
29.95000, 120.4807
29.97000, 135.1773
29.99000, 144.9417
30.01000, 151.6890
30.03000, 163.4821
30.05000, 171.3340
30.07000, 179.6870
30.09000, 188.3069
30.11000, 192.5681
30.13000, 185.3091
30.15000, 197.5937
30.17000, 204.4410
30.19000, 200.7762
30.21000, 187.9135
30.23000, 184.1109
30.25000, 179.3400
30.27000, 182.5468
30.29000, 191.3022
30.31000, 212.9313
30.33000, 223.2232
30.35000, 243.0957
30.37000, 260.5938
30.39000, 258.4036
30.41000, 252.5140
30.43000, 254.3511
30.45000, 243.6937
30.47000, 229.4421
30.49000, 231.3862
30.51000, 226.4214
30.53000, 205.8477
30.55000, 190.2174
30.57000, 187.7195
30.59000, 189.2148
30.61000, 172.2000
30.63000, 155.7476
30.65000, 137.2155
30.67000, 126.9087
30.69000, 129.0453
30.71000, 115.1831
30.73000, 93.99387
30.75000, 66.31931
30.77000, 49.76364
30.79000, 25.73578
30.81000, 5.142731
30.83000, 8.605072
30.85000, 18.14673
30.87000, 20.19373
30.89000, 20.04156
30.91000, 25.36523
30.93000, 26.29156
30.95000, 28.56595
30.97000, 31.50757
30.99000, 29.60587
31.01000, 32.89053
31.03000, 31.66901
31.05000, 28.55084
31.07000, 6.091766
31.09000, 4.121063
31.11000, 6.452789
31.13000, 15.51218
31.15000, 20.76440
31.17000, 31.12860
31.19000, 45.37378
31.21000, 55.97388
31.23000, 62.99899
31.25000, 73.03006
31.27000, 80.13800
31.29000, 107.6039
31.31000, 120.1156
31.33000, 130.0812
31.35000, 135.2526
31.37000, 149.3010
31.39000, 159.1241
31.41000, 156.7650
31.43000, 171.1968
31.45000, 173.4855
31.47000, 167.2819
31.49000, 163.2051
31.51000, 164.3062
31.53000, 165.9490
31.55000, 186.4655
31.57000, 193.8088
31.59000, 195.5489
31.61000, 207.1146
31.63000, 210.2979
31.65000, 215.2303
31.67000, 220.0598
31.69000, 224.1361
31.71000, 227.8430
31.73000, 233.0466
31.75000, 222.3596
31.77000, 217.2112
31.79000, 209.4784
31.81000, 210.0439
31.83000, 224.0151
31.85000, 213.9867
31.87000, 214.4840
31.89000, 216.3401
31.91000, 209.6158
31.93000, 191.8379
31.95000, 178.4101
31.97000, 175.7962
31.99000, 181.2960
32.01000, 177.6853
32.03000, 169.7597
32.05000, 167.1131
32.07000, 147.2806
32.09000, 150.6544
32.11000, 142.0212
32.13000, 129.0689
32.15000, 107.0363
32.17000, 84.25189
32.19000, 95.15390
32.21000, 91.57422
32.23000, 72.11203
32.25000, 71.31323
32.27000, 65.85178
32.29000, 67.02182
32.31000, 73.84229
32.33000, 67.83121
32.35000, 67.90466
32.37000, 64.15961
32.39000, 60.81409
32.41000, 60.94211
32.43000, 62.24271
32.45000, 69.12778
32.47000, 91.48083
32.49000, 88.15231
32.51000, 100.8365
32.53000, 111.4024
32.55000, 103.5009
32.57000, 97.88721
32.59000, 98.80826
32.61000, 93.54398
32.63000, 82.70151
32.65000, 79.00797
32.67000, 77.39560
32.69000, 74.11777
32.71000, 80.92957
32.73000, 83.21124
32.75000, 80.26105
32.77000, 79.59698
32.79000, 72.04126
32.81000, 69.70087
32.83000, 60.91214
32.85000, 56.21793
32.87000, 50.71097
32.89000, 44.27432
32.91000, 37.60071
32.93000, 45.71570
32.95000, 36.74445
32.97000, 38.14130
32.99000, 36.08142
33.01000, 25.76096
33.03000, 16.73093
33.05000, 7.049316
33.07000, 0.7990110
33.09000, 16.92065
33.11000, 24.55219
33.13000, 31.98886
33.15000, 49.98666
33.17000, 62.64719
33.19000, 72.60062
33.21000, 85.66446
33.23000, 90.19897
33.25000, 78.79874
33.27000, 75.33429
33.29000, 75.46866
33.31000, 71.75858
33.33000, 62.89127
33.35000, 65.16782
33.37000, 60.73407
33.39000, 54.99976
33.41000, 59.76550
33.43000, 67.90753
33.45000, 76.08157
33.47000, 88.82568
33.49000, 101.8462
33.51000, 111.3627
33.53000, 126.6220
33.55000, 140.6572
33.57000, 161.7132
33.59000, 180.8898
33.61000, 196.8072
33.63000, 212.5601
33.65000, 216.7615
33.67000, 240.8265
33.69000, 259.3939
33.71000, 258.9707
33.73000, 242.4967
33.75000, 225.6481
33.77000, 220.9617
33.79000, 212.4727
33.81000, 196.0497
33.83000, 206.6312
33.85000, 204.0948
33.87000, 189.4479
33.89000, 186.5316
33.91000, 185.0127
33.93000, 177.8171
33.95000, 160.1550
33.97000, 147.2050
33.99000, 140.8941
34.01000, 134.1472
34.03000, 115.2741
34.05000, 116.8838
34.07000, 115.3200
34.09000, 97.21460
34.11000, 85.08643
34.13000, 79.36130
34.15000, 63.06000
34.17000, 46.14334
34.19000, 41.19208
34.21000, 51.59402
34.23000, 60.04874
34.25000, 57.97397
34.27000, 60.01529
34.29000, 71.50803
34.31000, 68.98523
34.33000, 63.74139
34.35000, 57.11719
34.37000, 55.09924
34.39000, 58.03296
34.41000, 55.06509
34.43000, 64.12173
34.45000, 59.21310
34.47000, 62.03323
34.49000, 68.83344
34.51000, 78.04678
34.53000, 78.31845
34.55000, 73.13879
34.57000, 85.25641
34.59000, 96.67752
34.61000, 119.0019
34.63000, 136.4888
34.65000, 140.5168
34.67000, 150.2469
34.69000, 181.0376
34.71000, 200.8485
34.73000, 233.7859
34.75000, 275.8873
34.77000, 310.5784
34.79000, 334.3020
34.81000, 354.5415
34.83000, 373.1867
34.85000, 394.9041
34.87000, 394.9488
34.89000, 395.0525
34.91000, 390.4546
34.93000, 369.8473
34.95000, 363.6747
34.97000, 338.6162
34.99000, 323.2928
35.01000, 302.1097
35.03000, 278.7191
35.05000, 261.3406
35.07000, 247.7982
35.09000, 225.3177
35.11000, 201.4890
35.13000, 168.5546
35.15000, 146.4458
35.17000, 118.7711
35.19000, 92.12784
35.21000, 68.23083
35.23000, 47.05121
35.25000, 40.00937
35.27000, 27.07352
35.29000, 20.97699
35.31000, 12.77200
35.33000, 8.087373
35.35000, 6.162781
35.37000, 4.570618
35.39000, 1.587677
35.41000, 5.176056
35.43000, 4.008575
35.45000, 5.240326
35.47000, 17.59122
35.49000, 46.07562
35.51000, 70.56744
35.53000, 66.58081
35.55000, 61.26376
35.57000, 60.52548
35.59000, 56.75806
35.61000, 55.45035
35.63000, 36.41730
35.65000, 25.67914
35.67000, 10.82059
35.69000, 0.0000000E+00
##END=



