##NAMES=Stichtite
##RRUFFID=R050475
##IDEAL CHEMISTRY=Mg_6_Cr^3+^_2_CO_3_(OH)_16_&#183;4H_2_O
##LOCALITY=near Dundas, Tasmania, Australia
##OWNER=RRUFF
##SOURCE=California Institute of Technology
##DESCRIPTION=Aggregate of purple contorted plates
##DIFFRACTION SAMPLE DESCRIPTION=Powder, using Mo radiation
##STATUS=The identification of this mineral has been confirmed by X-ray diffraction and chemical analysis
##URL=rruff.info/R050475
##MEASURED CHEMISTRY=Mg_6.00_(Cr_0.97_Fe^3+^_0.75_Al_0.28_)_Σ=2_(CO_3_)(OH)_16_·4H_2_O ; (dark phase) C not measured but estimated by difference; light inclusion: chromite (Mg_0.53_Fe^2+^_0.47_)_Σ=1_(Cr^3+^_1.62_Al_0.33_Fe^3+^_0.05_)_Σ=2_O_4_
##CELL PARAMETERS=a: 3.146(2) b: 3.146(2) c: 24.53(9) alpha: 90 beta: 90 gamma: 120 volume: 210.3(7) crystal system: hexagonal
5.000000, 0.0000000E+00
5.030000, 4.090645
5.060000, 4.2838998E-02
5.090000, 1.454216
5.120000, 5.654236
5.150000, 9.203133
5.180000, 7.204163
5.210000, 6.507645
5.240000, 7.511360
5.270000, 3.559967
5.300000, 2.822487
5.330000, 2.060066
5.360000, 0.5701070
5.390000, 5.023521
5.420000, 13.78603
5.450000, 19.17149
5.480000, 24.39532
5.510000, 23.98245
5.540000, 23.99062
5.570000, 26.88443
5.600000, 16.93727
5.630000, 5.477783
5.660000, 4.118881
5.690000, 2.232773
5.720000, 1.937180
5.750000, 6.7626998E-02
5.780000, 4.256989
5.810000, 5.935043
5.840000, 4.817139
5.870000, 1.735596
5.900000, 0.2427060
5.930000, 4.833923
5.960000, 8.472015
5.990000, 0.2869420
6.020000, 8.064133
6.050000, 11.96716
6.080000, 14.64227
6.110000, 18.68867
6.140000, 19.49767
6.170000, 13.64647
6.200000, 14.81859
6.230000, 15.91267
6.260000, 16.49141
6.290000, 20.53444
6.320000, 20.98856
6.350000, 21.33945
6.380000, 24.01189
6.410000, 21.52165
6.440000, 20.45355
6.470000, 21.41638
6.500000, 23.60019
6.530000, 33.12733
6.560000, 39.64729
6.590000, 40.97479
6.620000, 43.86826
6.650000, 44.18935
6.680000, 49.06870
6.710000, 53.40491
6.740000, 51.57466
6.770000, 48.45563
6.800000, 46.26755
6.830000, 50.59120
6.860000, 56.16777
6.890000, 54.86105
6.920000, 54.80136
6.950000, 55.12192
6.980000, 56.85286
7.010000, 57.66034
7.040000, 62.54446
7.070000, 68.91017
7.100000, 73.17166
7.130000, 72.90715
7.160000, 75.11124
7.190000, 81.95694
7.220000, 83.37215
7.250000, 80.58698
7.280000, 88.16925
7.310000, 93.41425
7.340000, 89.42819
7.370000, 80.87422
7.400000, 76.71832
7.430000, 79.72354
7.460000, 87.12589
7.490000, 94.11642
7.520000, 94.54807
7.550000, 100.2119
7.580000, 109.0339
7.610000, 111.8180
7.640000, 109.2853
7.670000, 104.6067
7.700000, 107.9212
7.730000, 109.9058
7.760000, 111.0784
7.790000, 110.0741
7.820000, 106.3918
7.850000, 101.9504
7.880000, 105.8371
7.910000, 113.3346
7.940000, 116.4821
7.970000, 123.6538
8.000000, 130.1358
8.030000, 125.2866
8.060000, 127.5342
8.090000, 135.0347
8.120000, 142.7452
8.150000, 154.2000
8.180000, 159.7266
8.210000, 157.4338
8.240000, 158.4802
8.270000, 165.6077
8.300000, 166.8092
8.330000, 171.2698
8.360000, 176.6505
8.390000, 173.4384
8.420000, 174.2352
8.450000, 177.7710
8.480000, 179.9359
8.510000, 186.4537
8.540000, 204.3146
8.570000, 215.9756
8.600000, 230.6283
8.630000, 254.4665
8.660000, 275.3134
8.690000, 288.9955
8.720000, 307.6457
8.750000, 325.7696
8.780000, 344.9833
8.810000, 370.7888
8.840000, 385.6895
8.870000, 394.3807
8.900000, 392.5078
8.930000, 394.7399
8.960000, 392.1038
8.990000, 370.7709
9.020000, 352.5494
9.050000, 344.3723
9.080000, 317.7657
9.110000, 298.7571
9.140000, 283.5314
9.170000, 271.5545
9.200000, 261.9841
9.230000, 248.1271
9.260000, 235.0035
9.290000, 230.1979
9.320000, 225.0367
9.350000, 217.3743
9.380000, 213.1235
9.410000, 209.5172
9.440000, 205.1266
9.470000, 200.8654
9.500000, 192.2746
9.530000, 181.1037
9.560000, 176.5082
9.590000, 171.4657
9.620000, 169.6404
9.650000, 171.1959
9.680000, 166.1093
9.710000, 165.4435
9.740000, 165.2295
9.770000, 160.3562
9.800000, 155.4504
9.830000, 144.9162
9.860000, 132.3355
9.890000, 130.5603
9.920000, 131.2005
9.950000, 138.0630
9.980000, 147.6748
10.01000, 151.2209
10.04000, 154.8802
10.07000, 167.4236
10.10000, 177.2682
10.13000, 192.6938
10.16000, 216.7124
10.19000, 247.6800
10.22000, 278.0305
10.25000, 310.9228
10.28000, 340.2700
10.31000, 349.5869
10.34000, 346.1125
10.37000, 341.1887
10.40000, 325.1687
10.43000, 318.9391
10.46000, 324.9351
10.49000, 344.7997
10.52000, 372.6899
10.55000, 389.2067
10.58000, 398.5281
10.61000, 399.8830
10.64000, 378.5833
10.67000, 339.6383
10.70000, 298.3477
10.73000, 259.1557
10.76000, 222.9741
10.79000, 195.3419
10.82000, 168.4812
10.85000, 148.7309
10.88000, 148.2250
10.91000, 152.9368
10.94000, 153.5746
10.97000, 151.2861
11.00000, 148.2283
11.03000, 153.7466
11.06000, 160.3132
11.09000, 158.3463
11.12000, 154.1111
11.15000, 148.7224
11.18000, 146.4415
11.21000, 143.2060
11.24000, 135.7516
11.27000, 127.7277
11.30000, 124.2307
11.33000, 122.9715
11.36000, 126.2685
11.39000, 125.4971
11.42000, 122.6696
11.45000, 121.3519
11.48000, 118.0559
11.51000, 109.6986
11.54000, 99.27785
11.57000, 88.01768
11.60000, 77.13000
11.63000, 68.69882
11.66000, 61.81165
11.69000, 56.23766
11.72000, 52.79654
11.75000, 50.61560
11.78000, 49.97276
11.81000, 51.76108
11.84000, 48.87041
11.87000, 41.21883
11.90000, 33.36832
11.93000, 31.70982
11.96000, 30.37369
11.99000, 26.86903
12.02000, 27.77190
12.05000, 33.48030
12.08000, 39.57971
12.11000, 41.53220
12.14000, 37.46378
12.17000, 30.07533
12.20000, 28.77386
12.23000, 26.70862
12.26000, 30.20158
12.29000, 34.41164
12.32000, 32.23770
12.35000, 27.66699
12.38000, 23.57590
12.41000, 25.84082
12.44000, 27.90764
12.47000, 24.33533
12.50000, 22.85786
12.53000, 23.43620
12.56000, 23.93840
12.59000, 22.24435
12.62000, 23.54028
12.65000, 21.72156
12.68000, 25.04381
12.71000, 27.43079
12.74000, 29.16548
12.77000, 26.02484
12.80000, 20.62787
12.83000, 19.92755
12.86000, 21.42380
12.89000, 25.18964
12.92000, 24.42940
12.95000, 19.01472
12.98000, 11.14355
13.01000, 8.145844
13.04000, 10.68860
13.07000, 9.354797
13.10000, 11.64738
13.13000, 17.08705
13.16000, 20.81345
13.19000, 25.61119
13.22000, 26.00929
13.25000, 20.24066
13.28000, 18.53534
13.31000, 22.44926
13.34000, 23.56239
13.37000, 21.07079
13.40000, 16.04436
13.43000, 11.15111
13.46000, 6.936050
13.49000, 4.466110
13.52000, 3.997284
13.55000, 6.100571
13.58000, 7.242935
13.61000, 7.506378
13.64000, 7.720871
13.67000, 6.763382
13.70000, 6.377914
13.73000, 9.150436
13.76000, 13.41493
13.79000, 10.98042
13.82000, 8.852829
13.85000, 14.93115
13.88000, 17.89240
13.91000, 17.14255
13.94000, 15.92757
13.97000, 14.48842
14.00000, 14.07613
14.03000, 14.17969
14.06000, 14.33003
14.09000, 12.19322
14.12000, 11.98315
14.15000, 13.51987
14.18000, 13.38631
14.21000, 11.25652
14.24000, 9.763428
14.27000, 10.90602
14.30000, 11.68231
14.33000, 11.35728
14.36000, 6.512894
14.39000, 3.968170
14.42000, 2.542038
14.45000, 0.9895480
14.48000, 1.974411
14.51000, 6.270996
14.54000, 8.381058
14.57000, 6.191605
14.60000, 4.869751
14.63000, 5.129868
14.66000, 5.298935
14.69000, 4.711639
14.72000, 8.235229
14.75000, 11.87045
14.78000, 14.55612
14.81000, 11.88951
14.84000, 10.22139
14.87000, 11.24602
14.90000, 12.41785
14.93000, 11.32356
14.96000, 7.242615
14.99000, 2.291153
15.02000, 2.403030
15.05000, 9.461578
15.08000, 19.73341
15.11000, 30.94359
15.14000, 46.30418
15.17000, 60.66888
15.20000, 85.22394
15.23000, 108.8823
15.26000, 137.5910
15.29000, 176.1738
15.32000, 222.5401
15.35000, 276.2656
15.38000, 338.5158
15.41000, 406.9587
15.44000, 468.4811
15.47000, 528.6673
15.50000, 586.4722
15.53000, 641.0410
15.56000, 682.7469
15.59000, 710.8571
15.62000, 734.5670
15.65000, 744.3897
15.68000, 747.0951
15.71000, 740.4184
15.74000, 721.6091
15.77000, 709.8475
15.80000, 691.5762
15.83000, 664.5157
15.86000, 647.9404
15.89000, 627.4479
15.92000, 603.6376
15.95000, 581.6229
15.98000, 556.6354
16.01000, 521.2695
16.04000, 482.4024
16.07000, 449.8522
16.10000, 414.5138
16.13000, 377.4211
16.16000, 342.6283
16.19000, 309.5183
16.22000, 273.7740
16.25000, 246.2365
16.28000, 223.9128
16.31000, 207.5567
16.34000, 195.8457
16.37000, 190.0345
16.40000, 188.1399
16.43000, 193.8127
16.46000, 201.9801
16.49000, 216.0043
16.52000, 229.9440
16.55000, 237.2153
16.58000, 241.3244
16.61000, 242.9170
16.64000, 246.7202
16.67000, 252.8110
16.70000, 257.7253
16.73000, 258.9943
16.76000, 262.1637
16.79000, 260.0808
16.82000, 262.2513
16.85000, 261.1143
16.88000, 255.9759
16.91000, 251.8669
16.94000, 250.5564
16.97000, 251.9704
17.00000, 259.1399
17.03000, 268.0927
17.06000, 273.6400
17.09000, 277.8387
17.12000, 283.9360
17.15000, 289.4165
17.18000, 292.1815
17.21000, 292.4348
17.24000, 298.9175
17.27000, 307.2846
17.30000, 316.6351
17.33000, 334.3089
17.36000, 352.0651
17.39000, 368.2645
17.42000, 383.7733
17.45000, 396.8055
17.48000, 402.5498
17.51000, 403.1584
17.54000, 399.7095
17.57000, 397.2298
17.60000, 389.8082
17.63000, 376.1811
17.66000, 354.6891
17.69000, 328.8003
17.72000, 304.3499
17.75000, 285.0345
17.78000, 258.2915
17.81000, 233.3336
17.84000, 215.2670
17.87000, 198.9806
17.90000, 184.2085
17.93000, 176.3505
17.96000, 171.9559
17.99000, 163.3094
18.02000, 159.5201
18.05000, 149.2100
18.08000, 139.3925
18.11000, 128.9438
18.14000, 117.6378
18.17000, 108.3056
18.20000, 101.0047
18.23000, 95.39297
18.26000, 87.48810
18.29000, 89.41391
18.32000, 88.66962
18.35000, 89.03894
18.38000, 87.38605
18.41000, 84.11957
18.44000, 78.30972
18.47000, 69.11124
18.50000, 62.49129
18.53000, 62.07130
18.56000, 60.49696
18.59000, 58.59703
18.62000, 52.85837
18.65000, 45.19821
18.68000, 39.81953
18.71000, 33.01134
18.74000, 28.66762
18.77000, 26.72037
18.80000, 23.66557
18.83000, 18.50624
18.86000, 14.11139
18.89000, 12.49583
18.92000, 10.35976
18.95000, 6.379135
18.98000, 4.406677
19.01000, 7.632187
19.04000, 9.978928
19.07000, 6.035385
19.10000, 0.9738160
19.13000, 3.756531
19.16000, 7.622635
19.19000, 7.745636
19.22000, 5.316620
19.25000, 1.754623
19.28000, 3.711548
19.31000, 6.170212
19.34000, 5.047440
19.37000, 3.626221
19.40000, 4.811096
19.43000, 6.560135
19.46000, 6.046295
19.49000, 1.650589
19.52000, 6.0516000E-02
19.55000, 3.191147
19.58000, 6.639771
19.61000, 6.752533
19.64000, 8.869400
19.67000, 10.25742
19.70000, 10.95251
19.73000, 15.35475
19.76000, 19.72008
19.79000, 22.44951
19.82000, 28.38504
19.85000, 33.73764
19.88000, 43.54837
19.91000, 56.53418
19.94000, 68.67108
19.97000, 83.85205
20.00000, 96.87111
20.03000, 108.0662
20.06000, 121.8054
20.09000, 130.5617
20.12000, 142.1793
20.15000, 149.1964
20.18000, 161.8728
20.21000, 171.6243
20.24000, 179.2508
20.27000, 184.1664
20.30000, 188.9510
20.33000, 194.1507
20.36000, 198.9195
20.39000, 205.1802
20.42000, 210.7170
20.45000, 215.3908
20.48000, 219.0497
20.51000, 220.4405
20.54000, 221.8394
20.57000, 224.1593
20.60000, 226.4262
20.63000, 227.5392
20.66000, 222.2561
20.69000, 219.5591
20.72000, 211.9941
20.75000, 201.7541
20.78000, 193.2881
20.81000, 185.8161
20.84000, 173.4650
20.87000, 154.9350
20.90000, 136.3120
20.93000, 121.3470
20.96000, 106.2019
20.99000, 88.70988
21.02000, 75.36580
21.05000, 65.49373
21.08000, 61.72063
21.11000, 57.84451
21.14000, 52.21437
21.17000, 48.88724
21.20000, 45.11302
21.23000, 42.99083
21.26000, 43.87859
21.29000, 42.70232
21.32000, 40.90102
21.35000, 40.01268
21.38000, 37.43134
21.41000, 36.62994
21.44000, 38.38734
21.47000, 41.22221
21.50000, 43.39026
21.53000, 42.46576
21.56000, 42.13518
21.59000, 45.79852
21.62000, 46.45682
21.65000, 42.98608
21.68000, 40.03888
21.71000, 37.35817
21.74000, 38.56940
21.77000, 39.85413
21.80000, 39.26204
21.83000, 38.59322
21.86000, 37.64372
21.89000, 34.20644
21.92000, 32.60313
21.95000, 33.59767
21.98000, 34.06374
22.01000, 31.18869
22.04000, 28.30914
22.07000, 26.13832
22.10000, 24.74655
22.13000, 27.08855
22.16000, 27.70137
22.19000, 28.84294
22.22000, 26.90440
22.25000, 21.49878
22.28000, 17.16405
22.31000, 14.65422
22.34000, 11.55437
22.37000, 8.807632
22.40000, 7.899246
22.43000, 5.396744
22.46000, 2.535965
22.49000, 1.971588
22.52000, 4.205978
22.55000, 3.712341
22.58000, 6.913528
22.61000, 7.777283
22.64000, 8.253342
22.67000, 9.913757
22.70000, 6.834106
22.73000, 6.002441
22.76000, 6.511902
22.79000, 3.814026
22.82000, 0.5945740
22.85000, 1.675064
22.88000, 0.6997380
22.91000, 1.776199
22.94000, 5.3467002E-02
22.97000, 4.861710
23.00000, 8.022812
23.03000, 9.780899
23.06000, 10.32393
23.09000, 12.48480
23.12000, 14.53412
23.15000, 17.54912
23.18000, 22.69362
23.21000, 29.46210
23.24000, 36.94553
23.27000, 42.48289
23.30000, 45.70522
23.33000, 42.55446
23.36000, 42.85966
23.39000, 46.98778
23.42000, 50.45886
23.45000, 53.26184
23.48000, 54.95476
23.51000, 52.87860
23.54000, 49.87135
23.57000, 44.57005
23.60000, 38.93866
23.63000, 33.72119
23.66000, 33.28064
23.69000, 32.19099
23.72000, 27.79324
23.75000, 21.99040
23.78000, 19.49248
23.81000, 19.85045
23.84000, 19.03233
23.87000, 18.97011
23.90000, 15.53279
23.93000, 11.76137
23.96000, 14.18883
23.99000, 13.95117
24.02000, 13.20943
24.05000, 14.55054
24.08000, 13.84454
24.11000, 12.29042
24.14000, 12.16020
24.17000, 12.58084
24.20000, 25.94536
24.23000, 20.90486
24.26000, 22.88252
24.29000, 20.67116
24.32000, 20.86916
24.35000, 23.57904
24.38000, 27.04778
24.41000, 30.10837
24.44000, 26.87184
24.47000, 26.10614
24.50000, 28.48833
24.53000, 28.05435
24.56000, 27.65622
24.59000, 26.41293
24.62000, 24.32359
24.65000, 24.13091
24.68000, 18.95018
24.71000, 17.90630
24.74000, 14.99721
24.77000, 13.31601
24.80000, 11.33162
24.83000, 9.570084
24.86000, 10.27837
24.89000, 9.268478
24.92000, 7.010406
24.95000, 6.915176
24.98000, 3.207764
25.01000, 0.9471440
25.04000, 2.040131
25.07000, 1.782837
25.10000, 1.959244
25.13000, 2.286362
25.16000, 4.332214
25.19000, 4.416901
25.22000, 5.572372
25.25000, 8.390686
25.28000, 9.229782
25.31000, 11.56267
25.34000, 12.53937
25.37000, 11.18483
25.40000, 10.98407
25.43000, 10.42410
25.46000, 5.567856
25.49000, 3.358337
25.52000, 5.776566
25.55000, 6.609467
25.58000, 10.72609
25.61000, 17.83340
25.64000, 19.58940
25.67000, 18.68103
25.70000, 17.55734
25.73000, 20.33426
25.76000, 24.76680
25.79000, 27.76996
25.82000, 31.17471
25.85000, 32.22209
25.88000, 34.50888
25.91000, 34.65742
25.94000, 32.11275
25.97000, 31.14615
26.00000, 29.52071
26.03000, 34.09439
26.06000, 41.86034
26.09000, 48.93790
26.12000, 58.89816
26.15000, 78.29315
26.18000, 105.6407
26.21000, 146.5488
26.24000, 199.8103
26.27000, 265.4140
26.30000, 337.2944
26.33000, 418.6536
26.36000, 513.3696
26.39000, 607.3116
26.42000, 707.1058
26.45000, 775.4546
26.48000, 820.8254
26.51000, 846.2839
26.54000, 861.5552
26.57000, 857.7922
26.60000, 827.1913
26.63000, 778.3184
26.66000, 723.8654
26.69000, 657.8572
26.72000, 605.7908
26.75000, 562.0908
26.78000, 533.1837
26.81000, 518.4506
26.84000, 519.8339
26.87000, 538.3036
26.90000, 566.4449
26.93000, 593.1075
26.96000, 620.9777
26.99000, 639.5463
27.02000, 651.6444
27.05000, 651.3822
27.08000, 638.7152
27.11000, 611.2786
27.14000, 565.3679
27.17000, 514.6061
27.20000, 464.2660
27.23000, 407.4394
27.26000, 349.9823
27.29000, 297.0505
27.32000, 248.7893
27.35000, 213.3515
27.38000, 175.3502
27.41000, 145.8413
27.44000, 121.5198
27.47000, 102.0429
27.50000, 85.79142
27.53000, 68.37239
27.56000, 58.39983
27.59000, 53.88272
27.62000, 49.48410
27.65000, 51.90992
27.68000, 53.77222
27.71000, 50.34599
27.74000, 51.76219
27.77000, 57.55686
27.80000, 57.17500
27.83000, 58.66359
27.86000, 61.50063
27.89000, 64.04314
27.92000, 63.55209
27.95000, 61.35449
27.98000, 57.59837
28.01000, 50.73369
28.04000, 46.33244
28.07000, 45.04965
28.10000, 44.98132
28.13000, 45.60445
28.16000, 48.04599
28.19000, 49.35400
28.22000, 50.36748
28.25000, 54.85335
28.28000, 53.73969
28.31000, 55.82249
28.34000, 67.10371
28.37000, 72.09838
28.40000, 85.41245
28.43000, 103.8940
28.46000, 109.6130
28.49000, 115.7804
28.52000, 119.4943
28.55000, 120.6737
28.58000, 118.3188
28.61000, 111.1287
28.64000, 102.2066
28.67000, 98.61567
28.70000, 94.48167
28.73000, 90.41113
28.76000, 87.42108
28.79000, 80.25645
28.82000, 69.51537
28.85000, 65.46786
28.88000, 63.44482
28.91000, 62.32021
28.94000, 59.00302
28.97000, 55.87126
29.00000, 53.94195
29.03000, 49.02805
29.06000, 45.20758
29.09000, 39.15358
29.12000, 33.27698
29.15000, 28.62779
29.18000, 24.59906
29.21000, 23.78375
29.24000, 20.35287
29.27000, 18.00342
29.30000, 16.52039
29.33000, 15.08679
29.36000, 11.29364
29.39000, 8.194901
29.42000, 8.265640
29.45000, 6.142799
29.48000, 4.733353
29.51000, 1.199226
29.54000, 3.766907
29.57000, 5.637543
29.60000, 5.198654
29.63000, 4.077011
29.66000, 2.805916
29.69000, 3.081734
29.72000, 5.282104
29.75000, 7.382301
29.78000, 6.443596
29.81000, 4.766258
29.84000, 5.492256
29.87000, 6.554565
29.90000, 7.178520
29.93000, 6.303711
29.96000, 4.699326
29.99000, 0.7461930
30.02000, 0.9175030
30.05000, 4.935242
30.08000, 5.949127
30.11000, 8.653725
30.14000, 7.157715
30.17000, 7.478165
30.20000, 6.151070
30.23000, 2.874390
30.26000, 1.450943
30.29000, 1.845589
30.32000, 1.834389
30.35000, 6.218315
30.38000, 8.125679
30.41000, 9.896530
30.44000, 13.30585
30.47000, 16.61169
30.50000, 21.77700
30.53000, 25.01182
30.56000, 27.08414
30.59000, 34.55794
30.62000, 45.36525
30.65000, 57.04205
30.68000, 69.47936
30.71000, 83.45019
30.74000, 97.09053
30.77000, 113.3897
30.80000, 132.1051
30.83000, 147.0588
30.86000, 160.8012
30.89000, 170.1681
30.92000, 176.6965
30.95000, 182.2885
30.98000, 185.0780
31.01000, 184.7480
31.04000, 181.4521
31.07000, 172.8870
31.10000, 160.3549
31.13000, 150.7153
31.16000, 144.9153
31.19000, 134.2528
31.22000, 128.5249
31.25000, 125.7355
31.28000, 117.7696
31.31000, 114.8873
31.34000, 113.1326
31.37000, 106.5230
31.40000, 111.7319
31.43000, 115.9953
31.46000, 119.3982
31.49000, 117.4483
31.52000, 123.8752
31.55000, 127.8400
31.58000, 136.9323
31.61000, 142.1921
31.64000, 145.9026
31.67000, 153.0007
31.70000, 160.2184
31.73000, 169.3446
31.76000, 176.4464
31.79000, 177.4879
31.82000, 176.7588
31.85000, 172.2014
31.88000, 170.1016
31.91000, 165.9389
31.94000, 162.7937
31.97000, 157.0926
32.00000, 150.1871
32.03000, 145.7993
32.06000, 139.0280
32.09000, 123.9421
32.12000, 112.4390
32.15000, 105.5914
32.18000, 97.33147
32.21000, 92.46233
32.24000, 87.88489
32.27000, 85.10107
32.30000, 81.65894
32.33000, 73.77742
32.36000, 67.03156
32.39000, 61.62193
32.42000, 57.14550
32.45000, 50.95056
32.48000, 48.25415
32.51000, 47.19633
32.54000, 46.15216
32.57000, 47.15359
32.60000, 50.12767
32.63000, 48.84636
32.66000, 46.29470
32.69000, 44.10370
32.72000, 40.67929
32.75000, 38.20256
32.78000, 33.21845
32.81000, 29.04198
32.84000, 28.34415
32.87000, 30.12796
32.90000, 32.17162
32.93000, 34.12848
32.96000, 35.28029
32.99000, 32.93910
33.02000, 32.91646
33.05000, 32.62548
33.08000, 32.13023
33.11000, 31.89359
33.14000, 29.71013
33.17000, 29.07983
33.20000, 30.46034
33.23000, 32.96220
33.26000, 30.60354
33.29000, 26.08201
33.32000, 25.39402
33.35000, 28.43514
33.38000, 28.18229
33.41000, 31.30586
33.44000, 35.87505
33.47000, 41.62378
33.50000, 45.49365
33.53000, 42.34142
33.56000, 50.65180
33.59000, 55.20143
33.62000, 55.87546
33.65000, 50.26199
33.68000, 58.69755
33.71000, 57.53991
33.74000, 54.44008
33.77000, 56.46864
33.80000, 57.29266
33.83000, 57.34511
33.86000, 55.45674
33.89000, 52.15862
33.92000, 49.50363
33.95000, 47.98521
33.98000, 44.78735
34.01000, 42.14948
34.04000, 37.60360
34.07000, 34.66170
34.10000, 31.68178
34.13000, 28.62785
34.16000, 27.08192
34.19000, 25.34698
34.22000, 25.46803
34.25000, 26.13907
34.28000, 24.72324
34.31000, 26.95918
34.34000, 26.33910
34.37000, 20.77896
34.40000, 18.92995
34.43000, 21.25294
34.46000, 22.47390
34.49000, 21.84903
34.52000, 20.33092
34.55000, 20.69158
34.58000, 22.78903
34.61000, 20.70021
34.64000, 17.36685
34.67000, 17.19225
34.70000, 20.21897
34.73000, 21.98126
34.76000, 19.87187
34.79000, 15.72941
34.82000, 16.91489
34.85000, 19.51029
34.88000, 19.59866
34.91000, 21.46294
34.94000, 21.48203
34.97000, 19.09303
35.00000, 17.89672
35.03000, 17.07210
35.06000, 13.08092
35.09000, 10.93185
35.12000, 8.219711
35.15000, 8.023499
35.18000, 9.951233
35.21000, 7.312897
35.24000, 7.842499
35.27000, 10.75103
35.30000, 11.06451
35.33000, 11.97193
35.36000, 11.93329
35.39000, 8.028580
35.42000, 8.249809
35.45000, 7.631989
35.48000, 6.193108
35.51000, 5.821175
35.54000, 5.739174
35.57000, 3.484116
35.60000, 2.876007
35.63000, 2.397835
35.66000, 3.7620999E-02
35.69000, 1.135681
35.72000, 1.659317
35.75000, 1.633461
35.78000, 0.6348950
35.81000, 2.389198
35.84000, 2.105446
35.87000, 0.7586360
35.90000, 0.2767870
35.93000, 0.6358720
35.96000, 0.9691010
35.99000, 1.079338
36.02000, 0.1229020
36.05000, 0.2884220
36.08000, 0.3077160
36.11000, 0.7494510
36.14000, 0.4371410
36.17000, 1.733269
36.20000, 3.346077
36.23000, 5.563141
36.26000, 7.729149
36.29000, 10.01009
36.32000, 11.01400
36.35000, 11.08485
36.38000, 10.99266
36.41000, 9.185425
36.44000, 10.77542
36.47000, 10.04709
36.50000, 12.11316
36.53000, 11.04098
36.56000, 12.48020
36.59000, 14.02979
36.62000, 13.16307
36.65000, 12.21511
36.68000, 6.747078
36.71000, 7.530144
36.74000, 4.846924
36.77000, 1.488800
36.80000, 1.527039
36.83000, 0.1834260
36.86000, 0.5956190
36.89000, 2.189545
36.92000, 3.354759
36.95000, 5.518349
36.98000, 5.837692
37.01000, 4.777588
37.04000, 3.719696
37.07000, 2.377594
37.10000, 2.041313
37.13000, 3.323196
37.16000, 5.370422
37.19000, 5.064095
37.22000, 6.495811
37.25000, 11.07938
37.28000, 13.59875
37.31000, 13.67790
37.34000, 11.54085
37.37000, 10.59660
37.40000, 10.33715
37.43000, 12.12360
37.46000, 9.412010
37.49000, 10.88338
37.52000, 9.961197
37.55000, 8.558395
37.58000, 8.706673
37.61000, 6.696327
37.64000, 6.039742
37.67000, 6.559937
37.70000, 4.347900
37.73000, 3.048630
37.76000, 4.996124
37.79000, 5.851372
37.82000, 4.916397
37.85000, 2.069466
37.88000, 0.9478070
37.91000, 0.3852620
37.94000, 1.613106
37.97000, 0.9673610
38.00000, 3.608513
38.03000, 2.792336
38.06000, 1.686218
38.09000, 1.986511
38.12000, 0.8579480
38.15000, 2.680939
38.18000, 5.183014
38.21000, 4.017502
38.24000, 0.8504870
38.27000, 2.798271
38.30000, 2.125282
38.33000, 2.613625
38.36000, 2.690125
38.39000, 3.327477
38.42000, 3.130234
38.45000, 3.016708
38.48000, 2.711525
38.51000, 1.864288
38.54000, 1.392555
38.57000, 0.2483750
38.60000, 1.8227000E-02
38.63000, 1.877686
38.66000, 4.321465
38.69000, 4.480690
38.72000, 4.123062
38.75000, 6.602592
38.78000, 6.687164
38.81000, 3.713997
38.84000, 3.557068
38.87000, 5.443703
38.90000, 4.819496
38.93000, 4.989029
38.96000, 7.198425
38.99000, 6.835274
39.02000, 7.029884
39.05000, 6.214249
39.08000, 6.347366
39.11000, 6.330254
39.14000, 6.868889
39.17000, 7.675285
39.20000, 7.718422
39.23000, 6.306831
39.26000, 5.072754
39.29000, 3.893730
39.32000, 5.998383
39.35000, 6.738129
39.38000, 6.462753
39.41000, 6.236954
39.44000, 7.621635
39.47000, 8.570679
39.50000, 8.555489
39.53000, 8.673073
39.56000, 8.499977
39.59000, 7.348686
39.62000, 7.414513
39.65000, 6.179100
39.68000, 5.207260
39.71000, 3.085007
39.74000, 3.416634
39.77000, 1.997643
39.80000, 1.919724
39.83000, 4.865952
39.86000, 7.126465
39.89000, 8.659668
39.92000, 7.203453
39.95000, 5.449509
39.98000, 4.343559
40.01000, 2.078392
40.04000, 0.4500960
40.07000, 1.116966
40.10000, 3.758614
40.13000, 4.130325
40.16000, 2.160912
40.19000, 1.934235
40.22000, 3.681664
40.25000, 3.004402
40.28000, 2.733124
40.31000, 3.029778
40.34000, 1.334007
40.37000, 0.3818590
40.40000, 0.5857240
40.43000, 2.1065000E-02
40.46000, 1.585312
40.49000, 2.557404
40.52000, 2.045158
40.55000, 3.791069
40.58000, 2.708817
40.61000, 1.414200
40.64000, 1.675896
40.67000, 1.726601
40.70000, 1.879807
40.73000, 6.481125
40.76000, 12.86964
40.79000, 16.69656
40.82000, 21.75420
40.85000, 26.52753
40.88000, 32.00458
40.91000, 38.30704
40.94000, 47.97182
40.97000, 52.55403
41.00000, 60.31094
41.03000, 69.50459
41.06000, 72.05396
41.09000, 75.69205
41.12000, 76.49086
41.15000, 80.03544
41.18000, 84.69771
41.21000, 86.95875
41.24000, 84.80949
41.27000, 83.77900
41.30000, 79.85627
41.33000, 77.20724
41.36000, 77.32897
41.39000, 78.79350
41.42000, 81.68277
41.45000, 83.33864
41.48000, 84.28052
41.51000, 83.08884
41.54000, 86.77730
41.57000, 89.11951
41.60000, 90.07790
41.63000, 85.90318
41.66000, 88.03330
41.69000, 87.44063
41.72000, 86.59739
41.75000, 89.01008
41.78000, 84.49625
41.81000, 86.48689
41.84000, 85.91261
41.87000, 86.49483
41.90000, 84.33546
41.93000, 82.84113
41.96000, 83.80781
41.99000, 83.19450
42.02000, 80.17858
42.05000, 79.99834
42.08000, 74.36179
42.11000, 73.24799
42.14000, 74.00521
42.17000, 70.35746
42.20000, 61.62950
42.23000, 54.18595
42.26000, 47.06012
42.29000, 43.21227
42.32000, 42.06734
42.35000, 40.97444
42.38000, 41.13803
42.41000, 40.82774
42.44000, 35.21741
42.47000, 31.78604
42.50000, 29.95161
42.53000, 24.84438
42.56000, 22.97725
42.59000, 21.62412
42.62000, 20.00903
42.65000, 18.60992
42.68000, 16.19980
42.71000, 14.49573
42.74000, 12.72882
42.77000, 12.96895
42.80000, 14.18906
42.83000, 13.51914
42.86000, 13.97224
42.89000, 16.65244
42.92000, 21.06689
42.95000, 22.39455
42.98000, 21.33421
43.01000, 19.13886
43.04000, 21.22454
43.07000, 19.99622
43.10000, 19.39992
43.13000, 24.89263
43.16000, 30.06949
43.19000, 31.83949
43.22000, 32.10056
43.25000, 33.31465
43.28000, 32.93177
43.31000, 33.00195
43.34000, 34.69416
43.37000, 37.42471
43.40000, 37.78498
43.43000, 38.53835
43.46000, 38.60977
43.49000, 37.63724
43.52000, 37.08480
43.55000, 37.45142
43.58000, 36.81709
43.61000, 34.80958
43.64000, 32.32023
43.67000, 29.02489
43.70000, 26.42265
43.73000, 26.33405
43.76000, 22.44315
43.79000, 22.86262
43.82000, 23.63960
43.85000, 23.35739
43.88000, 21.58957
43.91000, 21.05457
43.94000, 15.77892
43.97000, 18.33155
44.00000, 19.57381
44.03000, 19.53387
44.06000, 14.40299
44.09000, 15.65968
44.12000, 14.54961
44.15000, 13.33393
44.18000, 15.71604
44.21000, 11.46694
44.24000, 13.79125
44.27000, 13.49290
44.30000, 14.39632
44.33000, 12.40250
44.36000, 9.180901
44.39000, 10.24812
44.42000, 5.695862
44.45000, 10.26099
44.48000, 10.77366
44.51000, 9.217667
44.54000, 7.911995
44.57000, 6.612854
44.60000, 7.107552
44.63000, 7.848991
44.66000, 8.076668
44.69000, 8.294693
44.72000, 10.46107
44.75000, 11.91879
44.78000, 10.67189
44.81000, 8.086342
44.84000, 3.581566
44.87000, 3.095764
44.90000, 4.485931
44.93000, 3.103912
44.96000, 2.368568
44.99000, 2.248932
45.02000, 1.513489
45.05000, 0.3915560
45.08000, 1.639244
45.11000, 1.059837
45.14000, 6.147415
45.17000, 11.49282
45.20000, 8.378166
45.23000, 6.312393
45.26000, 7.510933
45.29000, 8.941353
45.32000, 11.12032
45.35000, 13.05709
45.38000, 15.52915
45.41000, 15.40987
45.44000, 14.78144
45.47000, 12.93138
45.50000, 11.54987
45.53000, 11.69000
45.56000, 11.89516
45.59000, 9.360718
45.62000, 10.75868
45.65000, 14.11404
45.68000, 14.49984
45.71000, 12.88303
45.74000, 11.53369
45.77000, 12.76807
45.80000, 13.09711
45.83000, 10.70700
45.86000, 10.21609
45.89000, 9.883453
45.92000, 5.676537
45.95000, 5.457817
45.98000, 6.055672
46.01000, 6.712601
46.04000, 12.24191
46.07000, 14.59894
46.10000, 14.72240
46.13000, 14.15424
46.16000, 12.38004
46.19000, 12.98586
46.22000, 13.29935
46.25000, 16.24120
46.28000, 18.65454
46.31000, 22.63829
46.34000, 25.16364
46.37000, 26.77045
46.40000, 31.06577
46.43000, 35.98759
46.46000, 37.76891
46.49000, 41.41975
46.52000, 48.86510
46.55000, 57.32896
46.58000, 63.47736
46.61000, 63.24628
46.64000, 63.89670
46.67000, 65.01168
46.70000, 65.71716
46.73000, 67.55419
46.76000, 69.28276
46.79000, 70.66489
46.82000, 75.29453
46.85000, 79.77376
46.88000, 83.57952
46.91000, 85.62482
46.94000, 87.17767
46.97000, 85.86313
47.00000, 86.93712
47.03000, 85.71969
47.06000, 79.59685
47.09000, 79.21629
47.12000, 75.04614
47.15000, 75.76456
47.18000, 73.70354
47.21000, 66.65295
47.24000, 61.70415
47.27000, 53.46552
47.30000, 45.73579
47.33000, 42.52905
47.36000, 38.98070
47.39000, 38.72550
47.42000, 37.55227
47.45000, 35.25069
47.48000, 33.34203
47.51000, 30.07249
47.54000, 26.07190
47.57000, 25.27377
47.60000, 22.41660
47.63000, 19.60676
47.66000, 12.72114
47.69000, 14.37749
47.72000, 13.38049
47.75000, 11.51910
47.78000, 13.49963
47.81000, 16.58418
47.84000, 20.06815
47.87000, 20.18663
47.90000, 18.99760
47.93000, 16.97407
47.96000, 16.52000
47.99000, 16.51542
48.02000, 16.75333
48.05000, 15.15869
48.08000, 13.22480
48.11000, 15.81676
48.14000, 16.87650
48.17000, 17.93375
48.20000, 20.05943
48.23000, 21.42270
48.26000, 18.60259
48.29000, 13.61852
48.32000, 12.06327
48.35000, 11.10247
48.38000, 9.199615
48.41000, 10.24023
48.44000, 8.546646
48.47000, 8.742378
48.50000, 7.840141
48.53000, 6.005226
48.56000, 6.266075
48.59000, 7.562614
48.62000, 6.142776
48.65000, 1.124832
48.68000, 4.5967001E-02
48.71000, 1.926315
48.74000, 3.805885
48.77000, 2.263382
48.80000, 1.184143
48.83000, 0.1050030
48.86000, 0.2082440
48.89000, 1.036530
48.92000, 0.7980880
48.95000, 1.077728
48.98000, 3.391235
49.01000, 2.581978
49.04000, 1.099724
49.07000, 0.1899260
49.10000, 0.5314710
49.13000, 1.239418
49.16000, 4.654442
49.19000, 3.673477
49.22000, 2.875725
49.25000, 2.470055
49.28000, 2.273239
49.31000, 3.243675
49.34000, 4.746643
49.37000, 2.129967
49.40000, 7.7289999E-03
49.43000, 0.1738050
49.46000, 0.2604520
49.49000, 0.6848680
49.52000, 2.783386
49.55000, 1.276978
49.58000, 2.494141
49.61000, 1.7967001E-02
49.64000, 6.427071
49.67000, 1.419609
49.70000, 0.8586650
49.73000, 0.2293700
49.76000, 0.3700260
49.79000, 0.1726380
49.82000, 0.3437270
49.85000, 0.4865570
49.88000, 1.012001
49.91000, 0.2355880
49.94000, 0.5502090
49.97000, 2.259621
50.00000, 2.688332
50.03000, 3.432770
50.06000, 4.057961
50.09000, 4.604919
50.12000, 5.087585
50.15000, 6.231522
50.18000, 10.26714
50.21000, 11.83356
50.24000, 11.80515
50.27000, 12.29346
50.30000, 12.58555
50.33000, 10.14586
50.36000, 9.037064
50.39000, 7.675087
50.42000, 7.745796
50.45000, 6.566696
50.48000, 7.208794
50.51000, 7.025299
50.54000, 9.406578
50.57000, 7.628090
50.60000, 9.859932
50.63000, 10.76624
50.66000, 8.821053
50.69000, 8.573830
50.72000, 6.866127
50.75000, 4.951332
50.78000, 3.790253
50.81000, 2.106949
50.84000, 2.635803
50.87000, 1.820694
50.90000, 4.033569
50.93000, 1.922409
50.96000, 2.993027
50.99000, 3.250961
51.02000, 3.236786
51.05000, 3.135185
51.08000, 1.828575
51.11000, 7.3165998E-02
51.14000, 1.811287
51.17000, 6.002968
51.20000, 7.873802
51.23000, 7.364586
51.26000, 6.867088
51.29000, 5.317619
51.32000, 2.885971
51.35000, 1.879784
51.38000, 1.349449
51.41000, 1.798576
51.44000, 3.755684
51.47000, 2.525093
51.50000, 1.028328
51.53000, 3.679176
51.56000, 3.336937
51.59000, 3.002609
51.62000, 4.264221
51.65000, 2.042931
51.68000, 3.564178
51.71000, 1.289139
51.74000, 4.431427
51.77000, 4.566162
51.80000, 3.338264
51.83000, 2.948547
51.86000, 5.260345
51.89000, 7.679993
51.92000, 6.428101
51.95000, 6.083817
51.98000, 6.535858
52.01000, 5.608925
52.04000, 3.545547
52.07000, 0.8876270
52.10000, 0.3145140
52.13000, 4.165031
52.16000, 6.615204
52.19000, 5.180481
52.22000, 5.688538
52.25000, 4.650322
52.28000, 3.733940
52.31000, 1.037956
52.34000, 4.5348998E-02
52.37000, 1.449730
52.40000, 0.0000000E+00
##END=



