##NAMES=Tinticite
##RRUFFID=R190028
##IDEAL CHEMISTRY=Fe^3+^_3_(PO_4_)_2_(OH)_3_&#183;3H_2_O
##LOCALITY=Rocabruna mines, Bruguers, Gavà, Baix Llobregat, Barcelona, Catalonia, Spain
##OWNER=Joan Rosell
##SOURCE=Joan Rosell, Jordi Ibáñez (CSIC-ITJA), Tariq Jawhari (CCiTUB)
##DESCRIPTION=White, fine-grained spherical aggregate
##DIFFRACTION SAMPLE DESCRIPTION=Powder, with some quartz
##STATUS=The identification of this mineral has been confirmed by X-ray diffraction and chemical analysis
##URL=rruff.info/R190028
##MEASURED CHEMISTRY=(Fe^3+^_4.61_Al_0.45_)(P_0.97_V_0.03_O_4_)_4_(OH)_3_·4.8H_2_O
##CELL PARAMETERS=a: 7.9501(7) b: 9.974(1) c: 7.634(1) alpha: 103.86(1) beta: 115.835(9) gamma: 67.855(7) volume: 502.57(6) crystal system: triclinic
4.000100, 0.0000000E+00
4.035380, 172.8423
4.070660, 167.5225
4.105940, 112.4336
4.141220, 10.07910
4.176500, 361.0786
4.211780, 159.2100
4.247060, 170.7935
4.282340, 173.4375
4.317620, 119.8403
4.352900, 72.76465
4.388180, 207.0151
4.423460, 269.4316
4.458740, 149.8877
4.494020, 234.2739
4.529300, 205.5029
4.564580, 158.5010
4.599860, 253.2051
4.635140, 135.5527
4.670420, 287.4819
4.705700, 108.9463
4.740980, 163.9058
4.776260, 248.3252
4.811540, 188.1738
4.846820, 192.4258
4.882100, 140.0562
4.917380, 215.0444
4.952660, 266.3721
4.987940, 299.0225
5.023220, 246.9888
5.058500, 377.2573
5.093780, 280.8066
5.129060, 240.6104
5.164340, 251.6499
5.199620, 302.0903
5.234900, 526.5508
5.270180, 116.2095
5.305460, 410.0557
5.340740, 410.0825
5.376020, 148.2827
5.411300, 205.6523
5.446580, 286.1841
5.481860, 377.8750
5.517140, 421.7202
5.552420, 245.7148
5.587700, 319.8564
5.622980, 278.1401
5.658260, 441.5645
5.693540, 425.1260
5.728820, 314.8218
5.764100, 257.6504
5.799380, 388.6074
5.834660, 396.6924
5.869940, 503.9014
5.905220, 587.2334
5.940500, 322.6855
5.975780, 254.3022
6.011060, 261.1191
6.046340, 392.0576
6.081620, 188.1318
6.116900, 130.2837
6.152180, 226.4321
6.187460, 406.5723
6.222740, 107.7168
6.258020, 287.8838
6.293300, 132.0801
6.328580, 212.3120
6.363860, 9.413574
6.399140, 361.9062
6.434420, 291.2759
6.469700, 344.6997
6.504980, 136.1787
6.540260, 359.7158
6.575540, 178.3125
6.610820, 367.9717
6.646100, 285.6934
6.681380, 347.4795
6.716660, 417.3301
6.751940, 226.2441
6.787220, 392.2231
6.822500, 284.2676
6.857780, 285.3770
6.893060, 278.5522
6.928340, 460.7930
6.963620, 169.0996
6.998900, 361.4712
7.034180, 443.9077
7.069460, 414.4087
7.104740, 327.9751
7.140020, 219.6050
7.175300, 495.2988
7.210580, 371.0562
7.245860, 400.8755
7.281140, 394.7578
7.316420, 515.7021
7.351700, 405.7075
7.386980, 238.7905
7.422260, 342.9341
7.457540, 312.1445
7.492820, 453.4136
7.528100, 413.7417
7.563380, 451.1294
7.598660, 539.5752
7.633940, 367.0786
7.669220, 274.6396
7.704500, 385.2578
7.739780, 309.9326
7.775060, 558.6636
7.810340, 378.4502
7.845620, 469.2920
7.880900, 461.1904
7.916180, 465.1431
7.951460, 311.1421
7.986740, 283.4292
8.022020, 378.4780
8.057300, 432.5796
8.092580, 297.3062
8.127860, 551.3550
8.163140, 510.6035
8.198420, 438.9302
8.233700, 362.5659
8.268980, 303.0942
8.304260, 305.4922
8.339540, 470.0903
8.374820, 411.8604
8.410100, 533.7979
8.445380, 419.8813
8.480660, 444.1089
8.515940, 251.4634
8.551220, 222.9336
8.586500, 439.5195
8.621780, 432.2256
8.657060, 309.0308
8.692340, 259.9331
8.727620, 352.9497
8.762900, 445.0771
8.798180, 327.2881
8.833460, 385.5781
8.868740, 478.9800
8.904020, 410.4570
8.939300, 420.0088
8.974580, 231.6299
9.009860, 293.3184
9.045140, 307.0928
9.080420, 474.9307
9.115700, 237.8691
9.150980, 296.8682
9.186260, 339.9258
9.221540, 405.0586
9.256820, 386.2466
9.292100, 394.4902
9.327380, 460.7876
9.362660, 124.1367
9.397940, 348.5376
9.433220, 448.9932
9.468500, 486.4995
9.503780, 532.0537
9.539060, 549.6567
9.574340, 440.3066
9.609620, 476.0029
9.644900, 348.7451
9.680180, 383.5586
9.715460, 366.4160
9.750740, 413.3174
9.786020, 379.2622
9.821300, 449.2505
9.856580, 323.2808
9.891860, 349.3525
9.927140, 266.4648
9.962420, 324.6182
9.997700, 428.8105
10.03298, 330.0420
10.06826, 372.3125
10.10354, 295.6211
10.13882, 168.9790
10.17410, 211.3735
10.20938, 238.8052
10.24466, 385.2725
10.27994, 283.7749
10.31522, 155.3115
10.35050, 272.8828
10.38578, 413.4878
10.42106, 334.1279
10.45634, 241.8022
10.49162, 414.5112
10.52690, 311.2539
10.56218, 398.0317
10.59746, 222.7900
10.63274, 184.6357
10.66802, 138.5146
10.70330, 200.4277
10.73858, 144.7944
10.77386, 194.7734
10.80914, 209.7847
10.84442, 330.8286
10.87970, 241.3618
10.91498, 181.4707
10.95026, 53.61084
10.98554, 283.7827
11.02082, 107.9858
11.05610, 289.2202
11.09138, 173.4854
11.12666, 98.78076
11.16194, 343.1064
11.19722, 209.4629
11.23250, 118.8486
11.26778, 301.2637
11.30306, 97.70850
11.33834, 195.1821
11.37362, 189.6846
11.40890, 80.21484
11.44418, 166.7754
11.47946, 70.36279
11.51474, 120.9775
11.55002, 187.6206
11.58530, 260.2900
11.62058, 60.98682
11.65586, 242.7104
11.69114, 13.46094
11.72642, 286.3428
11.76170, 202.1445
11.79698, 84.97168
11.83226, 84.82471
11.86754, 114.7021
11.90282, 177.3945
11.93810, 105.4878
11.97338, 143.4336
12.00866, 6.380371
12.04394, 40.35107
12.07922, 187.3608
12.11450, 59.41162
12.14978, 82.51367
12.18506, 173.5552
12.22034, 55.36230
12.25562, 61.75098
12.29090, 8.887695
12.32618, 61.35596
12.36146, 99.36133
12.39674, 221.5591
12.43202, 140.6958
12.46730, 158.9521
12.50258, 68.26123
12.53786, 212.6455
12.57314, 105.0757
12.60842, 97.54443
12.64370, 70.04590
12.67898, 120.3701
12.71426, 298.9375
12.74954, 420.5352
12.78482, 779.9312
12.82010, 900.1021
12.85538, 1681.790
12.89066, 2192.144
12.92594, 2910.277
12.96122, 2672.827
12.99650, 2029.640
13.03178, 1251.482
13.06706, 852.7114
13.10234, 743.6045
13.13762, 645.2910
13.17290, 225.2339
13.20818, 269.2007
13.24346, 249.7705
13.27874, 90.78369
13.31402, 341.8306
13.34930, 285.8892
13.38458, 458.9683
13.41986, 559.9277
13.45514, 700.0493
13.49042, 943.1914
13.52570, 898.3545
13.56098, 1273.538
13.59626, 1025.764
13.63154, 717.1787
13.66682, 612.4204
13.70210, 377.6807
13.73738, 270.9595
13.77266, 277.2568
13.80794, 209.5723
13.84322, 171.9062
13.87850, 78.16846
13.91378, 60.53662
13.94906, 301.9219
13.98434, 93.32373
14.01962, 194.9219
14.05490, 158.3569
14.09018, 86.80811
14.12546, 250.2749
14.16074, 360.7568
14.19602, 408.2539
14.23130, 713.7666
14.26658, 978.2939
14.30186, 1466.836
14.33714, 2597.943
14.37242, 3832.515
14.40770, 4591.099
14.44298, 3091.697
14.47826, 1602.310
14.51354, 801.9351
14.54882, 603.5737
14.58410, 121.2251
14.61938, 105.8887
14.65466, 51.56592
14.68994, 252.2554
14.72522, 311.9565
14.76050, 130.6699
14.79578, 289.3950
14.83106, 222.1323
14.86634, 62.88184
14.90162, 66.64209
14.93690, 39.58643
14.97218, 107.1831
15.00746, 110.9624
15.04274, 165.7524
15.07802, 11.44727
15.11330, 110.3584
15.14858, 129.1738
15.18386, 308.9990
15.21914, 302.8340
15.25442, 717.6777
15.28970, 1167.531
15.32498, 1892.405
15.36026, 3478.288
15.39554, 5364.193
15.43082, 5037.106
15.46610, 2972.028
15.50138, 1417.960
15.53666, 617.8994
15.57194, 476.8467
15.60722, 292.8013
15.64250, 142.8281
15.67778, 147.7979
15.71306, 231.7739
15.74834, 274.7578
15.78362, 111.7495
15.81890, 414.7480
15.85418, 138.7529
15.88946, 248.7642
15.92474, 6.781250
15.96002, 218.8027
15.99530, 41.83057
16.03058, 102.8750
16.06586, 195.9248
16.10114, 221.9805
16.13642, 110.3418
16.17170, 14.25000
16.20698, 68.38525
16.24226, 31.49609
16.27754, 40.05273
16.31282, 174.0747
16.34810, 65.25293
16.38338, 117.8999
16.41866, 244.0815
16.45394, 188.0859
16.48922, 96.27539
16.52450, 40.53320
16.55978, 30.35645
16.59506, 19.07959
16.63034, 30.75439
16.66562, 60.80615
16.70090, 168.8042
16.73618, 125.3848
16.77146, 167.0312
16.80674, 24.21143
16.84202, 246.3999
16.87730, 20.41943
16.91258, 85.02441
16.94786, 127.1890
16.98314, 1.353027
17.01842, 49.49170
17.05370, 131.6313
17.08898, 5.887695
17.12426, 79.00000
17.15954, 84.93408
17.19482, 40.07959
17.23010, 136.7949
17.26538, 127.1953
17.30066, 101.7407
17.33594, 6.674316
17.37122, 227.5972
17.40650, 209.5171
17.44178, 59.56592
17.47706, 98.30762
17.51234, 133.8213
17.54762, 131.9678
17.58290, 79.75342
17.61818, 44.46484
17.65346, 48.27979
17.68874, 77.01953
17.72402, 125.7554
17.75930, 59.48779
17.79458, 40.21533
17.82986, 4.937988
17.86514, 187.6436
17.90042, 136.3457
17.93570, 58.04199
17.97098, 119.7334
18.00626, 98.42041
18.04154, 126.1021
18.07682, 73.22168
18.11210, 76.39795
18.14738, 145.0117
18.18266, 176.6201
18.21794, 39.22314
18.25322, 158.8179
18.28850, 255.4067
18.32378, 125.9893
18.35906, 250.5654
18.39434, 307.1353
18.42962, 290.6987
18.46490, 309.2563
18.50018, 334.8066
18.53546, 10.64941
18.57074, 163.8647
18.60602, 223.3716
18.64130, 185.8716
18.67658, 184.3643
18.71186, 250.8501
18.74714, 107.3286
18.78242, 93.79883
18.81770, 386.2627
18.85298, 134.7539
18.88826, 257.2026
18.92354, 162.6440
18.95882, 211.0786
18.99410, 296.5044
19.02938, 267.9238
19.06466, 268.4023
19.09994, 492.8057
19.13522, 939.2012
19.17050, 1488.168
19.20578, 2458.547
19.24106, 3124.919
19.27634, 3912.283
19.31162, 3204.182
19.34690, 2463.529
19.38218, 1780.868
19.41746, 1410.199
19.45274, 1113.521
19.48802, 1052.930
19.52330, 748.6416
19.55858, 482.9385
19.59386, 410.3057
19.62914, 315.5845
19.66442, 290.8540
19.69970, 127.4204
19.73498, 292.6719
19.77026, 340.9131
19.80554, 155.1450
19.84082, 77.36768
19.87610, 137.5796
19.91138, 234.7822
19.94666, 329.9746
19.98194, 463.5479
20.01722, 779.7212
20.05250, 964.8848
20.08778, 1049.037
20.12306, 628.1807
20.15834, 442.2075
20.19362, 252.4858
20.22890, 318.1064
20.26418, 308.2085
20.29946, 353.4688
20.33474, 258.5498
20.37002, 135.6411
20.40530, 98.95605
20.44058, 166.0347
20.47586, 5.897461
20.51114, 7.030762
20.54642, 114.9492
20.58170, 130.9160
20.61698, 266.8784
20.65226, 13.85498
20.68754, 208.7734
20.72282, 127.6797
20.75810, 295.6333
20.79338, 44.68018
20.82866, 120.8833
20.86394, 79.81348
20.89922, 8.504395
20.93450, 96.11914
20.96978, 16.91016
21.00506, 248.5664
21.04034, 118.2100
21.07562, 230.8418
21.11090, 90.77100
21.14618, 123.3750
21.18146, 264.9658
21.21674, 158.7769
21.25202, 162.8320
21.28730, 47.38623
21.32258, 23.28564
21.35786, 273.4116
21.39314, 216.1377
21.42842, 53.61572
21.46370, 284.0762
21.49898, 303.1641
21.53426, 113.6016
21.56954, 288.2598
21.60482, 288.6758
21.64010, 478.0806
21.67538, 445.8945
21.71066, 473.2778
21.74594, 393.6396
21.78122, 147.0020
21.81650, 400.3545
21.85178, 123.8389
21.88706, 398.1709
21.92234, 319.4932
21.95762, 218.8057
21.99290, 331.1084
22.02818, 301.3779
22.06346, 315.4683
22.09874, 515.7417
22.13402, 552.0049
22.16930, 620.2681
22.20458, 968.5327
22.23986, 1296.792
22.27514, 1585.042
22.31042, 1527.371
22.34570, 1995.602
22.38098, 2610.824
22.41626, 3289.036
22.45154, 4192.062
22.48682, 5097.258
22.52210, 5612.444
22.55738, 5148.622
22.59266, 4457.791
22.62794, 3562.951
22.66322, 2535.103
22.69850, 1849.243
22.73378, 1408.376
22.76906, 872.9492
22.80434, 727.0640
22.83962, 751.1719
22.87490, 411.2705
22.91018, 348.3608
22.94546, 391.4419
22.98074, 216.5371
23.01602, 296.6631
23.05130, 67.77979
23.08658, 274.9160
23.12186, 163.0435
23.15714, 191.1631
23.19242, 130.2856
23.22770, 251.3999
23.26298, 62.50635
23.29826, 175.6025
23.33354, 135.6914
23.36882, 166.7983
23.40410, 101.9028
23.43938, 151.0000
23.47466, 301.0884
23.50994, 134.1694
23.54522, 293.2441
23.58050, 246.3110
23.61578, 200.3813
23.65106, 207.4448
23.68634, 57.49902
23.72162, 16.45459
23.75690, 124.5620
23.79218, 27.42969
23.82746, 240.5430
23.86274, 217.5088
23.89802, 36.47021
23.93330, 82.42090
23.96858, 182.3647
24.00386, 169.3003
24.03914, 192.2285
24.07442, 235.0840
24.10970, 132.9976
24.14498, 146.9033
24.18026, 29.80176
24.21554, 266.6904
24.25082, 212.5708
24.28610, 173.4443
24.32138, 99.31055
24.35666, 253.1699
24.39194, 45.02344
24.42722, 21.13135
24.46250, 85.68359
24.49778, 42.49170
24.53306, 125.2920
24.56834, 161.0854
24.60362, 113.1279
24.63890, 134.5522
24.67418, 81.25488
24.70946, 172.4902
24.74474, 189.2476
24.78002, 93.82617
24.81530, 108.4028
24.85058, 52.97412
24.88586, 177.8789
24.92114, 224.4385
24.95642, 15.99170
24.99170, 225.5469
25.02698, 15.83154
25.06226, 66.38086
25.09754, 2.475586
25.13282, 31.77734
25.16810, 15.67529
25.20338, 102.3511
25.23866, 64.83984
25.27394, 50.31689
25.30922, 18.79834
25.34450, 164.0039
25.37978, 136.4854
25.41506, 188.9634
25.45034, 190.4414
25.48562, 177.9326
25.52090, 187.2861
25.55618, 83.77539
25.59146, 107.2842
25.62674, 82.81396
25.66202, 149.6377
25.69730, 64.16260
25.73258, 142.7202
25.76786, 49.27588
25.80314, 219.8325
25.83842, 184.3862
25.87370, 91.93848
25.90898, 63.50830
25.94426, 184.0757
25.97954, 169.6797
26.01482, 210.2817
26.05010, 271.8813
26.08538, 255.4971
26.12066, 404.1099
26.15594, 260.7212
26.19122, 296.3311
26.22650, 357.9395
26.26178, 303.5459
26.29706, 301.1567
26.33234, 347.7661
26.36762, 161.2544
26.40290, 390.4336
26.43818, 384.8130
26.47346, 531.4165
26.50874, 535.0181
26.54402, 925.6436
26.57930, 896.2676
26.61458, 1423.891
26.64986, 1867.814
26.68514, 2584.436
26.72042, 2415.055
26.75570, 2077.674
26.79098, 1851.292
26.82626, 1812.909
26.86154, 2586.525
26.89682, 4221.141
26.93210, 5799.755
26.96738, 6001.370
27.00266, 5249.995
27.03794, 4082.811
27.07322, 3072.436
27.10850, 2071.060
27.14378, 1577.684
27.17906, 1576.302
27.21434, 1489.125
27.24962, 1307.747
27.28490, 1296.775
27.32018, 1302.396
27.35546, 1207.016
27.39074, 1129.196
27.42602, 831.8130
27.46130, 897.4297
27.49658, 434.9766
27.53186, 396.5908
27.56714, 420.1729
27.60242, 307.7949
27.63770, 617.4150
27.67298, 426.0347
27.70826, 468.6528
27.74354, 490.2705
27.77882, 509.8862
27.81410, 689.0581
27.84938, 1002.672
27.88466, 1170.285
27.91994, 1228.803
27.95522, 1174.008
27.99050, 1183.618
28.02578, 1464.149
28.06106, 1857.759
28.09634, 2014.096
28.13162, 1841.399
28.16690, 1210.008
28.20218, 904.6177
28.23746, 624.2266
28.27274, 410.8354
28.30802, 370.4448
28.34330, 354.0542
28.37858, 366.6641
28.41386, 446.8838
28.44914, 346.4941
28.48442, 436.1050
28.51970, 316.7178
28.55498, 561.3315
28.59026, 552.9585
28.62554, 604.4307
28.66082, 639.5513
28.69610, 572.1807
28.73138, 489.6421
28.76666, 513.2729
28.80194, 479.9053
28.83722, 510.3135
28.87250, 459.9512
28.90778, 677.5908
28.94306, 1035.405
28.97834, 1431.081
29.01362, 2101.759
29.04890, 1951.440
29.08418, 1770.097
29.11946, 1358.795
29.15474, 803.4956
29.19002, 587.8228
29.22530, 466.5288
29.26058, 686.8979
29.29586, 501.6152
29.33114, 885.4849
29.36642, 1144.625
29.40170, 1448.073
29.43698, 2542.873
29.47226, 3830.677
29.50754, 5289.483
29.54282, 5594.193
29.57810, 5007.009
29.61338, 3529.827
29.64866, 2409.651
29.68394, 1715.478
29.71922, 1104.308
29.75450, 1150.146
29.78978, 1056.998
29.82506, 1337.854
29.86034, 1546.712
29.89562, 1939.579
29.93090, 2253.448
29.96618, 2468.321
30.00146, 2594.197
30.03674, 2123.076
30.07202, 2036.960
30.10730, 1610.846
30.14258, 1364.750
30.17786, 872.6592
30.21314, 514.5732
30.24842, 314.4907
30.28370, 288.4111
30.31898, 270.3359
30.35426, 225.2632
30.38954, 267.1938
30.42482, 206.1284
30.46010, 113.0654
30.49538, 67.00635
30.53066, 83.95068
30.56594, 39.10156
30.60122, 50.16797
30.63650, 20.25391
30.67178, 210.6543
30.70706, 250.5669
30.74234, 53.48340
30.77762, 67.40283
30.81290, 104.3257
30.84818, 9.748047
30.88346, 129.1777
30.91874, 164.1079
30.95402, 155.0586
30.98930, 162.0127
31.02458, 58.99658
31.05986, 173.9839
31.09514, 168.0010
31.13042, 49.02148
31.16570, 141.0454
31.20098, 55.07715
31.23626, 5.887695
31.27154, 186.1484
31.30682, 134.1885
31.34210, 34.23242
31.37738, 88.72021
31.41266, 155.7134
31.44794, 61.21826
31.48322, 111.8462
31.51850, 256.0371
31.55378, 19.92383
31.58906, 50.18457
31.62434, 167.6870
31.65962, 54.56152
31.69490, 185.4404
31.73018, 183.3237
31.76546, 104.7886
31.80074, 98.08203
31.83602, 40.92480
31.87130, 93.77100
31.90658, 58.62158
31.94186, 118.4756
31.97714, 124.3340
32.01242, 49.80371
32.04770, 131.0391
32.08298, 111.8857
32.11826, 68.73682
32.15354, 218.5933
32.18882, 228.4639
32.22410, 134.3398
32.25938, 11.23389
32.29466, 18.86816
32.32994, 165.0273
32.36522, 80.92871
32.40050, 257.8350
32.43578, 260.7461
32.47106, 142.6616
32.50634, 150.5815
32.54162, 230.5063
32.57690, 275.4360
32.61218, 452.3745
32.64746, 333.3193
32.68274, 212.2695
32.71802, 291.5386
32.75330, 270.4980
32.78858, 575.3447
32.82386, 313.3125
32.85914, 214.2983
32.89442, 316.2881
32.92970, 265.2822
32.96498, 324.2822
33.00026, 281.2861
33.03554, 359.2944
33.07082, 405.9067
33.10610, 350.9595
33.14138, 330.0161
33.17666, 324.1284
33.21194, 242.2446
33.24722, 213.3652
33.28250, 176.4907
33.31778, 184.6279
33.35306, 188.7861
33.38834, 108.9487
33.42362, 251.1182
33.45890, 327.2910
33.49418, 222.4702
33.52946, 237.6528
33.56474, 376.8447
33.60002, 608.0532
33.63530, 379.2720
33.67058, 416.5146
33.70586, 433.7876
33.74114, 292.0640
33.77642, 304.3447
33.81170, 276.6294
33.84698, 327.9175
33.88226, 530.2095
33.91754, 527.5054
33.95282, 505.8047
33.98810, 471.1074
34.02338, 495.4146
34.05866, 341.7251
34.09394, 478.0391
34.12922, 302.3564
34.16450, 332.6768
34.19978, 201.0010
34.23506, 377.3296
34.27034, 201.6606
34.30562, 348.9951
34.34090, 161.1631
34.37618, 377.2925
34.41146, 288.6372
34.44674, 581.9849
34.48202, 732.3359
34.51730, 855.6895
34.55258, 504.0469
34.58786, 559.4077
34.62314, 408.7705
34.65842, 368.1367
34.69370, 333.5059
34.72898, 348.8779
34.76426, 193.2529
34.79954, 170.7510
34.83482, 173.5596
34.87010, 175.1689
34.90538, 141.5566
34.94066, 235.9473
34.97594, 298.3408
35.01122, 337.7383
35.04650, 410.1382
35.08178, 449.2393
35.11706, 512.6455
35.15234, 429.9517
35.18762, 588.3643
35.22290, 648.7466
35.25818, 656.1641
35.29346, 484.4917
35.32874, 601.9141
35.36402, 505.3389
35.39930, 465.5049
35.43458, 70.93408
35.46986, 397.1738
35.50514, 410.6069
35.54042, 439.0415
35.57570, 451.4780
35.61098, 554.9224
35.64626, 339.1636
35.68154, 409.6064
35.71682, 477.6099
35.75210, 93.05811
35.78738, 317.5098
35.82266, 71.40283
35.85794, 20.86084
35.89322, 83.32129
35.92850, 138.7852
35.96378, 77.25244
35.99906, 45.24707
36.03434, 171.2197
36.06962, 71.69043
36.10490, 49.16357
36.14018, 53.64160
36.17546, 28.12354
36.21074, 189.6484
36.24602, 220.6138
36.28130, 266.1392
36.31658, 411.6680
36.35186, 610.2417
36.38714, 693.8340
36.42242, 594.4414
36.45770, 589.0513
36.49298, 449.6650
36.52826, 401.5542
36.56354, 230.1738
36.59882, 327.8096
36.63410, 386.4492
36.66938, 382.0913
36.70466, 266.7358
36.73994, 381.3833
36.77522, 319.0337
36.81050, 95.60254
36.84578, 202.2578
36.88106, 18.91602
36.91634, 10.42334
36.95162, 137.2363
36.98690, 57.10156
37.02218, 148.5366
37.05746, 1.178223
37.09274, 251.8203
37.12802, 16.46533
37.16330, 267.1128
37.19858, 62.76172
37.23386, 70.41260
37.26914, 15.93311
37.30442, 150.7158
37.33970, 140.3677
37.37498, 208.0210
37.41026, 282.6753
37.44554, 485.3320
37.48082, 745.9897
37.51610, 942.2983
37.55138, 1112.718
37.58666, 928.4199
37.62194, 783.0825
37.65722, 577.7466
37.69250, 426.4106
37.72778, 331.0762
37.76306, 78.74268
37.79834, 295.4800
37.83362, 226.2217
37.86890, 275.5068
37.90418, 333.1533
37.93946, 445.8218
37.97474, 620.4907
38.01002, 924.1602
38.04530, 1192.830
38.08058, 1430.498
38.11586, 1374.167
38.15114, 1369.836
38.18642, 1162.504
38.22170, 1114.173
38.25698, 998.8413
38.29226, 773.5093
38.32754, 403.1772
38.36282, 430.8447
38.39810, 177.5117
38.43338, 314.1787
38.46866, 136.8447
38.50394, 91.51123
38.53922, 43.82373
38.57450, 11.18408
38.60978, 132.4468
38.64506, 74.07764
38.68034, 91.70703
38.71562, 99.33643
38.75090, 53.96484
38.78618, 181.5928
38.82146, 83.22021
38.85674, 182.8467
38.89202, 269.4727
38.92730, 226.0981
38.96258, 325.7217
38.99786, 176.3452
39.03314, 129.9766
39.06842, 130.6191
39.10370, 126.2646
39.13898, 137.9097
39.17426, 8.553223
39.20954, 6.196289
39.24482, 157.8374
39.28010, 125.4780
39.31538, 81.11865
39.35066, 58.24121
39.38594, 23.36328
39.42122, 91.03369
39.45650, 6.517578
39.49178, 89.93408
39.52706, 24.56299
39.56234, 155.0586
39.59762, 7.447266
39.63290, 236.1216
39.66818, 266.6055
39.70346, 260.0894
39.73874, 135.5718
39.77402, 339.0542
39.80930, 478.5347
39.84458, 546.0352
39.87986, 403.5747
39.91514, 326.1211
39.95042, 172.6938
39.98570, 303.2661
40.02098, 136.8359
40.05626, 195.4497
40.09154, 228.0283
40.12682, 354.6064
40.16210, 291.2104
40.19738, 214.7852
40.23266, 306.1284
40.26794, 502.7261
40.30322, 71.32227
40.33850, 45.28174
40.37378, 50.87500
40.40906, 17.58057
40.44434, 250.7573
40.47962, 215.3560
40.51490, 47.95264
40.55018, 68.38330
40.58546, 161.4067
40.62074, 114.7334
40.65602, 239.3218
40.69130, 96.90625
40.72658, 308.4878
40.76186, 389.1187
40.79714, 335.8027
40.83242, 346.3784
40.86770, 294.9497
40.90298, 213.5186
40.93826, 156.0879
40.97354, 84.65381
41.00882, 5.216797
41.04410, 191.7656
41.07938, 66.31152
41.11466, 405.8535
41.14994, 287.0781
41.18522, 253.6128
41.22050, 488.2603
41.25578, 236.7876
41.29106, 438.2988
41.32634, 481.8188
41.36162, 314.3350
41.39690, 247.8486
41.43218, 326.3579
41.46746, 150.8638
41.50274, 106.8027
41.53802, 157.3013
41.57330, 133.7969
41.60858, 254.2891
41.64386, 178.7769
41.67914, 154.2622
41.71442, 7.256348
41.74970, 40.79443
41.78498, 39.63184
41.82026, 50.05420
41.85554, 74.47266
41.89082, 89.88721
41.92610, 167.2988
41.96138, 192.7065
41.99666, 34.11084
42.03194, 33.51074
42.06722, 54.09326
42.10250, 75.73633
42.13778, 81.56641
42.17306, 117.8647
42.20834, 121.1592
42.24362, 124.4507
42.27890, 164.7388
42.31418, 120.0234
42.34946, 220.3047
42.38474, 229.5942
42.42002, 247.8804
42.45530, 529.1636
42.49058, 663.4429
42.52586, 905.7192
42.56114, 1278.992
42.59642, 1272.260
42.63170, 1237.526
42.66698, 1072.788
42.70226, 1014.046
42.73754, 1127.301
42.77282, 603.7231
42.80810, 774.1836
42.84338, 649.4287
42.87866, 542.6709
42.91394, 441.9102
42.94922, 623.1455
42.98450, 480.3779
43.01978, 485.6074
43.05506, 735.8335
43.09034, 650.0562
43.12562, 1092.275
43.16090, 1487.491
43.19618, 1494.705
43.23146, 1240.915
43.26674, 1151.122
43.30202, 999.3242
43.33730, 925.5239
43.37258, 604.7207
43.40786, 382.9136
43.44314, 368.1035
43.47842, 363.2900
43.51370, 58.47363
43.54898, 114.6616
43.58426, 152.9507
43.61954, 109.1333
43.65482, 153.3452
43.69010, 321.5234
43.72538, 280.7905
43.76066, 185.9634
43.79594, 43.13379
43.83122, 18.56250
43.86650, 176.7285
43.90178, 56.89258
43.93706, 71.07764
43.97234, 222.2603
44.00762, 166.4409
44.04290, 137.6201
44.07818, 303.7969
44.11346, 194.7739
44.14874, 158.9463
44.18402, 192.1152
44.21930, 232.2812
44.25458, 33.44580
44.28986, 105.6064
44.32514, 123.7646
44.36042, 34.91943
44.39570, 66.07227
44.43098, 34.77783
44.46626, 73.35352
44.50154, 84.48242
44.53682, 3.608887
44.57210, 96.72803
44.60738, 88.15625
44.64266, 16.10791
44.67794, 65.93555
44.71322, 240.9756
44.74850, 147.3901
44.78378, 45.43896
44.81906, 34.52100
44.85434, 61.37012
44.88962, 93.25781
44.92490, 74.14355
44.96018, 30.02637
44.99546, 41.09375
45.03074, 149.7559
45.06602, 133.6030
45.10130, 174.4473
45.13658, 271.3154
45.17186, 199.1548
45.20714, 456.9922
45.24242, 382.9111
45.27770, 487.7432
45.31298, 265.5732
45.34826, 480.4004
45.38354, 443.2275
45.41882, 337.0518
45.45410, 218.8867
45.48938, 263.7324
45.52466, 316.5757
45.55994, 257.4180
45.59522, 455.2588
45.63050, 599.0981
45.66578, 756.9355
45.70106, 1039.788
45.73634, 983.6411
45.77162, 1147.520
45.80690, 1130.396
45.84218, 1069.271
45.87746, 1094.141
45.91274, 1006.013
45.94802, 888.2324
45.98330, 675.3413
46.01858, 641.1665
46.05386, 529.0312
46.08914, 413.8936
46.12442, 437.7549
46.15970, 297.6235
46.19498, 375.4907
46.23026, 206.2866
46.26554, 313.0786
46.30082, 90.39209
46.33610, 275.2783
46.37138, 168.1421
46.40666, 221.0054
46.44194, 398.8853
46.47722, 600.7646
46.51250, 922.6465
46.54778, 910.5278
46.58306, 1198.143
46.61834, 1245.022
46.65362, 1322.901
46.68890, 1217.779
46.72418, 900.6567
46.75946, 916.5327
46.79474, 744.4082
46.83002, 574.2832
46.86530, 561.1572
46.90058, 335.0293
46.93586, 233.9019
46.97114, 224.7729
47.00642, 130.6562
47.04170, 239.6567
47.07698, 85.54297
47.11226, 107.4272
47.14754, 144.3115
47.18282, 180.1948
47.21810, 69.07764
47.25338, 203.9595
47.28866, 230.8408
47.32394, 103.7212
47.35922, 377.6011
47.39450, 310.4795
47.42978, 470.3574
47.46506, 462.2349
47.50034, 482.1118
47.53562, 569.9878
47.57090, 392.8638
47.60618, 391.7568
47.64146, 401.6499
47.67674, 254.5430
47.71202, 351.4355
47.74730, 314.1221
47.78258, 291.0942
47.81786, 435.0024
47.85314, 272.9106
47.88842, 354.0117
47.92370, 327.9443
47.95898, 88.91016
47.99426, 89.87549
48.02954, 51.00781
48.06482, 201.8916
48.10010, 182.8594
48.13538, 270.2646
48.17066, 207.2314
48.20594, 142.1973
48.24122, 170.3184
48.27650, 179.2827
48.31178, 30.75146
48.34706, 47.19678
48.38234, 393.1445
48.41762, 667.0913
48.45290, 553.0376
48.48818, 638.9512
48.52346, 593.8970
48.55874, 537.8433
48.59402, 307.7603
48.62930, 383.7065
48.66458, 254.8760
48.69986, 195.8208
48.73514, 171.7964
48.77042, 241.4209
48.80570, 125.3647
48.84098, 245.1948
48.87626, 188.5503
48.91154, 107.4941
48.94682, 15.56152
48.98210, 68.54248
49.01738, 275.0527
49.05266, 118.2563
49.08794, 37.19531
49.12322, 254.1353
49.15850, 310.0972
49.19378, 210.0098
49.22906, 232.8667
49.26434, 32.83838
49.29962, 127.8120
49.33490, 31.21436
49.37018, 229.7505
49.40546, 158.7163
49.44074, 65.68262
49.47602, 126.6548
49.51130, 161.6274
49.54658, 30.60107
49.58186, 254.5757
49.61714, 359.5508
49.65242, 251.5269
49.68770, 378.2788
49.72298, 320.2563
49.75826, 495.4976
49.79354, 413.6543
49.82882, 674.8550
49.86410, 227.8345
49.89938, 365.7676
49.93466, 406.8896
49.96994, 605.0610
50.00522, 401.0415
50.04050, 543.0215
50.07578, 495.0015
50.11106, 400.3418
50.14634, 239.3223
50.18162, 257.3105
50.21690, 314.3145
50.25218, 363.3486
50.28746, 359.3579
50.32274, 237.3906
50.35802, 91.46826
50.39330, 183.5000
50.42858, 126.5674
50.46386, 206.8037
50.49914, 25.16260
50.53442, 253.9014
50.56970, 192.3169
50.60498, 163.5410
50.64026, 93.58594
50.67554, 80.65186
50.71082, 291.5630
50.74610, 58.62695
50.78138, 49.30908
50.81666, 50.72949
50.85194, 85.76709
50.88722, 153.8037
50.92250, 125.8394
50.95778, 35.87354
50.99306, 60.90625
51.02834, 169.9375
51.06362, 197.9663
51.09890, 35.99316
51.13418, 253.0181
51.16946, 248.0410
51.20474, 265.0620
51.24002, 8.080078
51.27530, 89.09521
51.31058, 135.1074
51.34586, 151.1167
51.38114, 144.1240
51.41642, 227.1284
51.45170, 209.1304
51.48698, 217.1318
51.52226, 426.1304
51.55754, 420.1279
51.59282, 373.1211
51.62810, 167.1157
51.66338, 398.1123
51.69866, 282.1108
51.73394, 295.1113
51.76922, 250.2856
51.80450, 322.3203
51.83978, 161.3164
51.87506, 306.5854
51.91034, 217.5840
51.94562, 29.41650
51.98090, 26.75439
52.01618, 196.7227
52.05146, 55.69189
52.08674, 6.661621
52.12202, 71.63184
52.15730, 195.3535
52.19258, 189.4082
52.22786, 9.381836
52.26314, 183.3560
52.29842, 210.3311
52.33370, 85.69238
52.36898, 127.2622
52.40426, 79.25586
52.43954, 14.21289
52.47482, 367.1699
52.51010, 192.5767
52.54538, 205.7329
52.58066, 209.6929
52.61594, 268.6543
52.65122, 221.6162
52.68650, 353.5801
52.72178, 270.7334
52.75706, 154.7500
52.79234, 130.6987
52.82762, 128.9790
52.86290, 190.9019
52.89818, 79.93750
52.93346, 47.83447
52.96874, 44.90088
53.00402, 86.79736
53.03930, 257.9307
53.07458, 146.8535
53.10986, 269.7700
53.14514, 182.9170
53.18042, 281.2676
53.21570, 346.2192
53.25098, 506.1577
53.28626, 418.1001
53.32154, 714.0425
53.35682, 588.8384
53.39210, 603.7793
53.42738, 582.7188
53.46266, 539.7520
53.49794, 735.7041
53.53322, 728.6553
53.56850, 518.5801
53.60378, 314.5308
53.63906, 302.4810
53.67434, 402.4302
53.70962, 371.3794
53.74490, 276.3281
53.78018, 147.2759
53.81546, 271.1851
53.85074, 93.09033
53.88602, 36.00488
53.92130, 152.8833
53.95658, 15.77148
53.99186, 29.63916
54.02714, 21.50293
54.06242, 174.3647
54.09770, 53.77588
54.13298, 40.06445
54.16826, 89.10352
54.20354, 129.6992
54.23882, 77.49951
54.27410, 152.3711
54.30938, 9.163086
54.34466, 292.9463
54.37994, 151.7266
54.41522, 93.50342
54.45050, 72.25146
54.48578, 182.0181
54.52106, 141.2998
54.55634, 18.93701
54.59162, 146.7798
54.62690, 76.59912
54.66218, 36.24023
54.69746, 222.2007
54.73274, 79.91504
54.76802, 18.54150
54.80330, 48.16064
54.83858, 49.22510
54.87386, 141.3677
54.90914, 0.9560550
54.94442, 126.5361
54.97970, 225.1113
55.01498, 248.9478
55.05026, 164.5122
55.08554, 423.0728
55.12082, 271.6284
55.15610, 287.1509
55.19138, 416.5063
55.22666, 454.8433
55.26194, 457.1582
55.29722, 438.4531
55.33250, 270.7324
55.36778, 305.9941
55.40306, 332.2349
55.43834, 290.4521
55.47362, 472.5273
55.50890, 475.6963
55.54418, 413.8535
55.57946, 642.0015
55.61474, 728.1416
55.65002, 608.2803
55.68530, 581.7588
55.72058, 504.9224
55.75586, 312.2280
55.79114, 257.0063
55.82642, 300.2261
55.86170, 171.4482
55.89698, 239.6724
55.93226, 165.8623
55.96754, 51.05273
56.00282, 47.72803
56.03810, 143.4487
56.07338, 35.44727
56.10866, 131.6094
56.14394, 97.59131
56.17922, 40.76709
56.21450, 189.8789
56.24978, 206.8164
56.28506, 119.9351
56.32034, 123.0645
56.35562, 10.80420
56.39090, 74.32715
56.42618, 210.4590
56.46146, 193.5908
56.49674, 172.6333
56.53202, 170.7666
56.56730, 156.9023
56.60258, 89.04199
56.63786, 279.1885
56.67314, 237.3369
56.70842, 25.43604
56.74370, 190.5239
56.77898, 138.6021
56.81426, 141.6938
56.84954, 123.7876
56.88482, 147.8823
56.92010, 59.97852
56.95538, 86.24170
56.99066, 142.9297
57.02594, 39.41748
57.06122, 133.8086
57.09650, 59.61816
57.13178, 108.4922
57.16706, 52.83203
57.20234, 124.6982
57.23762, 42.52100
57.27290, 138.3369
57.30818, 109.9219
57.34346, 42.27881
57.37874, 86.97705
57.41402, 140.8989
57.44930, 168.0723
57.48458, 136.2993
57.51986, 171.9380
57.55514, 61.40332
57.59042, 94.25537
57.62570, 270.9189
57.66098, 16.40918
57.69626, 331.2710
57.73154, 388.9614
57.76682, 348.6650
57.80210, 447.3823
57.83738, 336.1143
57.87266, 377.8545
57.90794, 221.6094
57.94322, 326.3555
57.97850, 350.0820
58.01378, 408.8994
58.04906, 239.8789
58.08434, 288.4102
58.11962, 465.5762
58.15490, 550.1685
58.19018, 429.6753
58.22546, 483.9424
58.26074, 481.3672
58.29602, 328.7593
58.33130, 198.0166
58.36658, 181.1763
58.40186, 252.4238
58.43714, 198.6284
58.47242, 74.26562
58.50770, 171.2661
58.54298, 191.5361
58.57826, 176.5957
58.61354, 183.5210
58.64882, 4.189453
58.68410, 100.8984
58.71938, 67.78125
58.75466, 120.8447
58.78994, 74.66602
58.82522, 49.79443
58.86050, 78.23389
58.89578, 20.02783
58.93106, 42.75244
58.96634, 141.3970
59.00162, 181.9541
59.03690, 176.7622
59.07218, 291.5220
59.10746, 153.2969
59.14274, 390.0981
59.17802, 345.8379
59.21330, 354.5659
59.24858, 353.8228
59.28386, 508.4614
59.31914, 575.0625
59.35442, 682.3179
59.38970, 577.7422
59.42498, 691.1299
59.46026, 670.3970
59.49554, 841.4619
59.53082, 731.2764
59.56610, 699.5747
59.60138, 658.2148
59.63666, 471.0371
59.67194, 704.7925
59.70722, 489.1670
59.74250, 298.6201
59.77778, 404.3740
59.81306, 131.4858
59.84834, 102.8364
59.88362, 3.036621
59.91890, 63.95215
59.95418, 0.2749020
59.98946, 0.0000000E+00
##END=



