##NAMES=Tsumgallite
##RRUFFID=R100125
##IDEAL CHEMISTRY=GaOOH
##LOCALITY=Tsumeb, Namibia
##OWNER=RRUFF
##SOURCE=William W. Pinch
##DESCRIPTION=Pale green platy crystals, associated with galena and tennantite
##DIFFRACTION SAMPLE DESCRIPTION=Powder, using Mo radiation
##STATUS=The identification of this mineral has been confirmed by X-ray diffraction.
##URL=rruff.info/R100125
##CELL PARAMETERS=a: 4.5122(8) b: 9.784(2) c: 2.9701(5) alpha: 90 beta: 90 gamma: 90 volume: 131.12(3) crystal system: orthorhombic
8.310000, 0.0000000E+00
8.330000, 3.972656
8.350000, 5.2490002E-03
8.370000, 0.5095210
8.390000, 8.469238
8.410000, 15.33691
8.430000, 24.73975
8.450000, 36.33032
8.470000, 34.28625
8.490000, 28.80884
8.510000, 16.13965
8.530000, 7.782593
8.550000, 4.756836
8.570000, 0.3680420
8.590000, 0.4477540
8.610000, 4.037354
8.630000, 8.307861
8.650000, 18.88123
8.670000, 32.50854
8.690000, 39.07288
8.710000, 37.11267
8.730000, 34.26648
8.750000, 27.77283
8.770000, 18.00073
8.790000, 10.90942
8.810000, 5.367798
8.830000, 1.945557
8.850000, 1.371948
8.870000, 10.95703
8.890000, 29.28967
8.910000, 34.01965
8.930000, 15.94617
8.950000, 4.611938
8.970000, 8.335693
8.990000, 2.604248
9.010000, 17.15662
9.030000, 41.56116
9.050000, 56.42737
9.070000, 51.02466
9.090000, 46.93237
9.110000, 47.76990
9.130000, 53.28760
9.150000, 53.08447
9.170000, 46.95093
9.190000, 35.99646
9.210000, 16.28101
9.230000, 2.684570
9.250000, 6.996948
9.270000, 16.89893
9.290000, 33.30139
9.310000, 56.81433
9.330000, 73.03735
9.350000, 76.04053
9.370000, 73.04346
9.390000, 67.39587
9.410000, 66.25720
9.430000, 61.43799
9.450000, 51.04724
9.470000, 45.70532
9.490000, 50.23181
9.510000, 62.13647
9.530000, 65.03516
9.550000, 62.19678
9.570000, 58.34204
9.590000, 61.31055
9.610000, 81.52234
9.630000, 120.9569
9.650000, 159.8726
9.670000, 197.9907
9.690000, 231.6522
9.710000, 248.9869
9.730000, 271.1653
9.750000, 307.2472
9.770000, 340.5331
9.790000, 363.2628
9.810000, 369.6764
9.830000, 356.0426
9.850000, 325.5961
9.870000, 288.6841
9.890000, 245.5264
9.910000, 193.7933
9.930000, 161.9944
9.950000, 146.4104
9.970000, 119.1310
9.990000, 95.77600
10.01000, 90.11548
10.03000, 92.67969
10.05000, 91.86853
10.07000, 78.63196
10.09000, 68.60986
10.11000, 66.22241
10.13000, 67.85950
10.15000, 60.39221
10.17000, 55.37268
10.19000, 50.68738
10.21000, 42.36353
10.23000, 37.90125
10.25000, 35.51819
10.27000, 48.54846
10.29000, 65.30188
10.31000, 59.90247
10.33000, 60.73694
10.35000, 75.00464
10.37000, 81.39575
10.39000, 78.81995
10.41000, 68.76746
10.43000, 48.96838
10.45000, 35.79272
10.47000, 29.06030
10.49000, 33.05139
10.51000, 29.61560
10.53000, 20.96484
10.55000, 12.04614
10.57000, 2.560547
10.59000, 16.02832
10.61000, 31.56970
10.63000, 51.88452
10.65000, 70.06311
10.67000, 76.39514
10.69000, 71.90088
10.71000, 69.93481
10.73000, 63.62500
10.75000, 48.31836
10.77000, 47.09216
10.79000, 48.99390
10.81000, 43.74512
10.83000, 42.27625
10.85000, 45.94421
10.87000, 52.06616
10.89000, 63.62134
10.91000, 75.64001
10.93000, 63.79150
10.95000, 49.07629
10.97000, 42.64355
10.99000, 41.05212
11.01000, 38.20349
11.03000, 45.02905
11.05000, 50.44666
11.07000, 59.27954
11.09000, 73.68726
11.11000, 70.78979
11.13000, 49.51733
11.15000, 33.03955
11.17000, 34.67651
11.19000, 38.39771
11.21000, 43.91357
11.23000, 56.17371
11.25000, 70.66809
11.27000, 84.25671
11.29000, 75.77954
11.31000, 64.24646
11.33000, 51.01721
11.35000, 40.58142
11.37000, 39.46106
11.39000, 40.52344
11.41000, 42.74963
11.43000, 50.05969
11.45000, 60.60327
11.47000, 63.77051
11.49000, 59.08142
11.51000, 65.56567
11.53000, 66.98352
11.55000, 64.80481
11.57000, 65.98962
11.59000, 65.45776
11.61000, 64.29932
11.63000, 69.43408
11.65000, 75.90234
11.67000, 73.90369
11.69000, 63.94824
11.71000, 59.09595
11.73000, 46.34680
11.75000, 32.45056
11.77000, 16.14758
11.79000, 7.397705
11.81000, 20.44055
11.83000, 41.18628
11.85000, 55.25513
11.87000, 64.68665
11.89000, 55.93115
11.91000, 45.05823
11.93000, 44.52820
11.95000, 53.59180
11.97000, 63.92737
11.99000, 81.31982
12.01000, 97.36414
12.03000, 101.1377
12.05000, 98.00403
12.07000, 95.23303
12.09000, 98.49707
12.11000, 96.83936
12.13000, 98.82568
12.15000, 108.1910
12.17000, 108.4856
12.19000, 112.0203
12.21000, 108.2177
12.23000, 83.43750
12.25000, 72.65991
12.27000, 62.34473
12.29000, 65.62390
12.31000, 71.07959
12.33000, 81.90186
12.35000, 93.44641
12.37000, 85.97351
12.39000, 74.88306
12.41000, 63.87488
12.43000, 54.00916
12.45000, 50.83545
12.47000, 54.67432
12.49000, 57.85547
12.51000, 44.50879
12.53000, 30.89453
12.55000, 35.46265
12.57000, 46.55286
12.59000, 54.84534
12.61000, 61.18005
12.63000, 63.00671
12.65000, 55.03662
12.67000, 36.25952
12.69000, 21.19458
12.71000, 3.881836
12.73000, 0.1607670
12.75000, 17.21191
12.77000, 31.47461
12.79000, 44.45947
12.81000, 47.40698
12.83000, 46.23840
12.85000, 52.59351
12.87000, 49.89148
12.89000, 32.94336
12.91000, 14.96033
12.93000, 12.36243
12.95000, 14.96985
12.97000, 5.191650
12.99000, 5.985596
13.01000, 9.061279
13.03000, 0.5089110
13.05000, 4.188354
13.07000, 19.39966
13.09000, 22.20264
13.11000, 23.85791
13.13000, 26.08545
13.15000, 18.50708
13.17000, 9.302246
13.19000, 4.608276
13.21000, 11.93518
13.23000, 22.84778
13.25000, 25.72351
13.27000, 18.43787
13.29000, 15.31848
13.31000, 21.67883
13.33000, 25.61108
13.35000, 26.19556
13.37000, 22.82275
13.39000, 30.85217
13.41000, 42.30371
13.43000, 36.91711
13.45000, 34.30249
13.47000, 37.75989
13.49000, 35.65906
13.51000, 33.45996
13.53000, 40.73291
13.55000, 45.97766
13.57000, 50.77405
13.59000, 49.67236
13.61000, 42.45251
13.63000, 32.07422
13.65000, 22.44775
13.67000, 15.94287
13.69000, 8.759644
13.71000, 10.10803
13.73000, 16.75818
13.75000, 13.14050
13.77000, 10.13635
13.79000, 14.27380
13.81000, 15.78284
13.83000, 19.94336
13.85000, 21.84534
13.87000, 23.98901
13.89000, 19.76367
13.91000, 15.30994
13.93000, 13.71741
13.95000, 16.89624
13.97000, 22.89636
13.99000, 18.92786
14.01000, 12.14062
14.03000, 20.56445
14.05000, 28.65942
14.07000, 25.77576
14.09000, 31.12329
14.11000, 38.58179
14.13000, 28.20154
14.15000, 24.15222
14.17000, 19.96387
14.19000, 16.39673
14.21000, 18.83081
14.23000, 28.83557
14.25000, 24.19141
14.27000, 16.06812
14.29000, 16.82581
14.31000, 7.724365
14.33000, 0.3337400
14.35000, 1.124023
14.37000, 5.584595
14.39000, 4.563843
14.41000, 2.836792
14.43000, 9.659058
14.45000, 9.064697
14.47000, 4.395142
14.49000, 18.82288
14.51000, 25.62427
14.53000, 28.68384
14.55000, 14.85510
14.57000, 6.129028
14.59000, 16.11377
14.61000, 25.03003
14.63000, 22.23755
14.65000, 5.536255
14.67000, 7.254761
14.69000, 1.907349
14.71000, 15.40002
14.73000, 32.90845
14.75000, 43.86755
14.77000, 55.14746
14.79000, 52.99829
14.81000, 37.31006
14.83000, 27.67310
14.85000, 32.70898
14.87000, 44.83716
14.89000, 54.02808
14.91000, 60.84180
14.93000, 60.27759
14.95000, 52.54468
14.97000, 45.60339
14.99000, 41.34277
15.01000, 32.49902
15.03000, 25.38000
15.05000, 21.26257
15.07000, 18.80713
15.09000, 18.14990
15.11000, 31.83057
15.13000, 44.84949
15.15000, 61.57983
15.17000, 84.24390
15.19000, 110.4418
15.21000, 130.4592
15.23000, 147.1545
15.25000, 159.9412
15.27000, 170.8086
15.29000, 184.6802
15.31000, 196.7268
15.33000, 203.6348
15.35000, 194.0825
15.37000, 177.9491
15.39000, 150.2377
15.41000, 115.5176
15.43000, 90.59802
15.45000, 67.32788
15.47000, 49.16809
15.49000, 38.35498
15.51000, 20.34521
15.53000, 11.03674
15.55000, 8.718262
15.57000, 2.385376
15.59000, 2.964355
15.61000, 2.288086
15.63000, 1.020508
15.65000, 2.212280
15.67000, 2.670227
15.69000, 13.57697
15.71000, 28.36200
15.73000, 47.32312
15.75000, 80.76514
15.77000, 114.7275
15.79000, 155.9586
15.81000, 207.2886
15.83000, 244.1472
15.85000, 283.9547
15.87000, 312.0010
15.89000, 330.3959
15.91000, 353.2095
15.93000, 360.9017
15.95000, 363.3726
15.97000, 361.2720
15.99000, 343.4600
16.01000, 317.7866
16.03000, 282.2615
16.05000, 253.1251
16.07000, 211.0472
16.09000, 165.9376
16.11000, 138.2465
16.13000, 120.5839
16.15000, 125.2095
16.17000, 138.6176
16.19000, 147.9431
16.21000, 149.9777
16.23000, 157.8165
16.25000, 174.6036
16.27000, 198.4591
16.29000, 217.9426
16.31000, 235.1444
16.33000, 243.8044
16.35000, 247.7129
16.37000, 249.1094
16.39000, 251.7738
16.41000, 251.1666
16.43000, 247.6372
16.45000, 246.5858
16.47000, 249.5925
16.49000, 257.0269
16.51000, 263.5895
16.53000, 266.8899
16.55000, 291.0983
16.57000, 318.4146
16.59000, 346.4086
16.61000, 392.7106
16.63000, 459.1702
16.65000, 554.7379
16.67000, 692.3829
16.69000, 856.1358
16.71000, 1043.997
16.73000, 1249.810
16.75000, 1476.255
16.77000, 1689.505
16.79000, 1877.360
16.81000, 2040.329
16.83000, 2159.389
16.85000, 2210.249
16.87000, 2178.108
16.89000, 2092.745
16.91000, 1945.568
16.93000, 1745.568
16.95000, 1522.069
16.97000, 1289.853
16.99000, 1048.883
17.01000, 831.2747
17.03000, 630.7748
17.05000, 462.5319
17.07000, 326.8140
17.09000, 231.0554
17.11000, 172.1768
17.13000, 128.7708
17.15000, 93.00122
17.17000, 79.47430
17.19000, 67.83917
17.21000, 51.09265
17.23000, 39.52655
17.25000, 30.92615
17.27000, 28.31439
17.29000, 41.22211
17.31000, 52.08887
17.33000, 45.89709
17.35000, 34.91119
17.37000, 31.08386
17.39000, 18.69086
17.41000, 0.5185550
17.43000, 0.9027100
17.45000, 7.907715
17.47000, 15.62207
17.49000, 21.14459
17.51000, 27.49243
17.53000, 26.59198
17.55000, 16.06946
17.57000, 1.586853
17.59000, 2.445679
17.61000, 2.054077
17.63000, 4.6936002E-02
17.65000, 2.790039
17.67000, 7.449158
17.69000, 7.821594
17.71000, 8.461121
17.73000, 5.418823
17.75000, 7.097229
17.77000, 16.79016
17.79000, 21.29254
17.81000, 19.04419
17.83000, 12.06647
17.85000, 16.86267
17.87000, 15.22180
17.89000, 7.208069
17.91000, 1.844788
17.93000, 2.164551
17.95000, 12.63556
17.97000, 24.04761
17.99000, 29.95416
18.01000, 30.79718
18.03000, 28.77850
18.05000, 24.33929
18.07000, 20.77191
18.09000, 25.86578
18.11000, 24.24963
18.13000, 28.68030
18.15000, 48.04407
18.17000, 62.30676
18.19000, 78.73358
18.21000, 95.94928
18.23000, 104.6311
18.25000, 108.9039
18.27000, 117.9096
18.29000, 131.7583
18.31000, 144.3830
18.33000, 154.8628
18.35000, 154.5396
18.37000, 147.1473
18.39000, 144.6649
18.41000, 133.4077
18.43000, 122.8932
18.45000, 108.0149
18.47000, 89.34534
18.49000, 74.65387
18.51000, 61.12927
18.53000, 43.80341
18.55000, 27.28778
18.57000, 22.82379
18.59000, 32.30933
18.61000, 36.64282
18.63000, 41.44409
18.65000, 47.76422
18.67000, 58.15637
18.69000, 62.17206
18.71000, 64.15790
18.73000, 66.08575
18.75000, 64.18622
18.77000, 63.45648
18.79000, 66.75342
18.81000, 76.09326
18.83000, 85.15796
18.85000, 87.08850
18.87000, 83.65851
18.89000, 80.76245
18.91000, 83.16687
18.93000, 89.12817
18.95000, 92.09204
18.97000, 86.03430
18.99000, 79.33643
19.01000, 70.43707
19.03000, 58.69366
19.05000, 52.85291
19.07000, 51.91486
19.09000, 46.15051
19.11000, 33.76782
19.13000, 21.15881
19.15000, 10.82806
19.17000, 8.915955
19.19000, 5.715149
19.21000, 4.433411
19.23000, 8.463745
19.25000, 5.508911
19.27000, 7.673584
19.29000, 4.491821
19.31000, 2.069946
19.33000, 8.579834
19.35000, 15.19519
19.37000, 7.732544
19.39000, 3.323364
19.41000, 14.39978
19.43000, 21.66418
19.45000, 19.46075
19.47000, 15.58136
19.49000, 11.24524
19.51000, 11.81592
19.53000, 11.98395
19.55000, 8.512695
19.57000, 8.622070
19.59000, 3.305664
19.61000, 3.539673
19.63000, 2.513733
19.65000, 3.230408
19.67000, 4.279358
19.69000, 1.083984
19.71000, 1.661255
19.73000, 0.5114750
19.75000, 8.383911
19.77000, 19.58887
19.79000, 22.66718
19.81000, 25.95880
19.83000, 28.96631
19.85000, 37.79669
19.87000, 36.91010
19.89000, 33.23907
19.91000, 32.81567
19.93000, 31.38269
19.95000, 22.87994
19.97000, 17.23999
19.99000, 9.897888
20.01000, 3.419067
20.03000, 4.739685
20.05000, 10.86194
20.07000, 17.93890
20.09000, 25.61206
20.11000, 31.26282
20.13000, 29.60571
20.15000, 21.37915
20.17000, 7.759644
20.19000, 1.706726
20.21000, 6.349365
20.23000, 12.90198
20.25000, 19.59387
20.27000, 27.16327
20.29000, 34.17163
20.31000, 41.58936
20.33000, 47.93378
20.35000, 48.78217
20.37000, 45.20355
20.39000, 44.51886
20.41000, 51.47455
20.43000, 57.56812
20.45000, 61.97821
20.47000, 71.63379
20.49000, 80.42914
20.51000, 96.73608
20.53000, 115.5579
20.55000, 120.9523
20.57000, 121.6196
20.59000, 123.4988
20.61000, 115.9271
20.63000, 115.2385
20.65000, 113.1486
20.67000, 101.1651
20.69000, 96.69257
20.71000, 89.46851
20.73000, 78.74921
20.75000, 70.81104
20.77000, 62.57397
20.79000, 56.08655
20.81000, 49.51904
20.83000, 47.25659
20.85000, 46.96240
20.87000, 41.33514
20.89000, 33.25714
20.91000, 28.10931
20.93000, 34.74146
20.95000, 40.00061
20.97000, 41.35693
20.99000, 44.21069
21.01000, 44.21246
21.03000, 37.88550
21.05000, 30.49957
21.07000, 26.18994
21.09000, 22.00128
21.11000, 20.95447
21.13000, 28.34552
21.15000, 38.65472
21.17000, 41.05017
21.19000, 38.73987
21.21000, 38.55591
21.23000, 30.35626
21.25000, 30.86780
21.27000, 32.10474
21.29000, 27.17078
21.31000, 24.72980
21.33000, 29.24646
21.35000, 33.27917
21.37000, 41.84534
21.39000, 49.89783
21.41000, 55.06586
21.43000, 70.17023
21.45000, 80.30206
21.47000, 77.51929
21.49000, 76.21289
21.51000, 69.99994
21.53000, 73.50952
21.55000, 75.49359
21.57000, 74.98383
21.59000, 76.24194
21.61000, 76.14417
21.63000, 71.03900
21.65000, 64.17010
21.67000, 59.71637
21.69000, 51.91132
21.71000, 39.70496
21.73000, 38.02203
21.75000, 39.43658
21.77000, 36.51294
21.79000, 36.27588
21.81000, 28.82697
21.83000, 23.62518
21.85000, 21.02692
21.87000, 14.69183
21.89000, 12.19312
21.91000, 9.533386
21.93000, 6.820251
21.95000, 0.6011960
21.97000, 7.794861
21.99000, 9.689819
22.01000, 12.59906
22.03000, 19.30768
22.05000, 20.75848
22.07000, 18.77893
22.09000, 19.63245
22.11000, 18.05939
22.13000, 16.74756
22.15000, 14.21411
22.17000, 12.44226
22.19000, 8.424500
22.21000, 4.674988
22.23000, 0.9143680
22.25000, 1.363220
22.27000, 1.345032
22.29000, 1.045532
22.31000, 3.590881
22.33000, 2.854248
22.35000, 6.763000
22.37000, 16.13861
22.39000, 23.51807
22.41000, 24.91132
22.43000, 15.70532
22.45000, 7.673340
22.47000, 8.040100
22.49000, 9.471375
22.51000, 7.052124
22.53000, 7.395081
22.55000, 5.461426
22.57000, 0.5279540
22.59000, 7.957214
22.61000, 10.21185
22.63000, 15.59070
22.65000, 13.24036
22.67000, 1.381165
22.69000, 0.3820190
22.71000, 0.6105960
22.73000, 6.312134
22.75000, 8.640503
22.77000, 13.33356
22.79000, 28.64429
22.81000, 42.79095
22.83000, 57.10358
22.85000, 70.95526
22.87000, 75.32410
22.89000, 81.22211
22.91000, 96.58112
22.93000, 111.3422
22.95000, 130.9254
22.97000, 154.6766
22.99000, 162.8560
23.01000, 164.2873
23.03000, 168.0043
23.05000, 164.7452
23.07000, 158.8464
23.09000, 150.2279
23.11000, 138.9346
23.13000, 126.1992
23.15000, 112.0335
23.17000, 104.8569
23.19000, 100.2318
23.21000, 87.45587
23.23000, 81.32208
23.25000, 78.03876
23.27000, 69.66064
23.29000, 73.39642
23.31000, 73.03888
23.33000, 65.58228
23.35000, 62.96002
23.37000, 61.19019
23.39000, 58.08636
23.41000, 48.81171
23.43000, 38.14227
23.45000, 31.41388
23.47000, 31.63593
23.49000, 28.92792
23.51000, 32.44501
23.53000, 39.06061
23.55000, 46.55054
23.57000, 48.81775
23.59000, 42.46722
23.61000, 33.11200
23.63000, 25.91199
23.65000, 15.92377
23.67000, 12.53253
23.69000, 11.25287
23.71000, 13.37958
23.73000, 15.97772
23.75000, 21.51355
23.77000, 31.96484
23.79000, 40.23962
23.81000, 44.41882
23.83000, 42.93353
23.85000, 45.32489
23.87000, 51.71167
23.89000, 68.56097
23.91000, 83.89191
23.93000, 103.6876
23.95000, 130.8284
23.97000, 155.4384
23.99000, 193.9268
24.01000, 240.7303
24.03000, 281.0504
24.05000, 327.4161
24.07000, 377.8601
24.09000, 410.3966
24.11000, 425.0527
24.13000, 438.8182
24.15000, 438.0328
24.17000, 422.1869
24.19000, 406.4806
24.21000, 394.3835
24.23000, 380.8654
24.25000, 370.5157
24.27000, 346.7692
24.29000, 311.1890
24.31000, 281.4643
24.33000, 245.9692
24.35000, 216.3641
24.37000, 195.1630
24.39000, 167.3145
24.41000, 147.7435
24.43000, 124.2147
24.45000, 110.2422
24.47000, 108.6404
24.49000, 99.46063
24.51000, 90.65424
24.53000, 81.14398
24.55000, 79.23627
24.57000, 76.65686
24.59000, 70.70343
24.61000, 67.13397
24.63000, 63.48474
24.65000, 58.37372
24.67000, 61.44928
24.69000, 71.14117
24.71000, 78.99127
24.73000, 79.51019
24.75000, 86.69623
24.77000, 85.68140
24.79000, 74.35608
24.81000, 56.63580
24.83000, 54.34778
24.85000, 48.24225
24.87000, 47.88525
24.89000, 49.52698
24.91000, 40.42828
24.93000, 37.68866
24.95000, 33.51965
24.97000, 21.43127
24.99000, 19.65698
25.01000, 20.81982
25.03000, 23.58643
25.05000, 28.15466
25.07000, 35.04095
25.09000, 44.51825
25.11000, 43.20642
25.13000, 33.70746
25.15000, 30.67621
25.17000, 36.81268
25.19000, 33.33466
25.21000, 28.82312
25.23000, 14.99817
25.25000, 13.17108
25.27000, 6.745667
25.29000, 7.257996
25.31000, 21.29462
25.33000, 24.03204
25.35000, 20.73511
25.37000, 22.45575
25.39000, 5.387146
25.41000, 2.758850
25.43000, 4.682922
25.45000, 14.26813
25.47000, 20.39539
25.49000, 6.040039
25.51000, 3.005493
25.53000, 3.678772
25.55000, 1.509094
25.57000, 3.069092
25.59000, 10.14069
25.61000, 7.611877
25.63000, 4.520386
25.65000, 3.606567
25.67000, 1.670471
25.69000, 17.03021
25.71000, 27.39026
25.73000, 37.31158
25.75000, 41.32208
25.77000, 37.67242
25.79000, 35.60675
25.81000, 37.85693
25.83000, 44.53491
25.85000, 44.47797
25.87000, 49.81311
25.89000, 56.60034
25.91000, 63.59869
25.93000, 62.28510
25.95000, 62.77045
25.97000, 63.57874
25.99000, 57.42712
26.01000, 54.08240
26.03000, 50.19373
26.05000, 39.32507
26.07000, 42.63977
26.09000, 40.34576
26.11000, 34.00421
26.13000, 31.35419
26.15000, 29.27014
26.17000, 25.40503
26.19000, 17.82910
26.21000, 12.49731
26.23000, 15.64752
26.25000, 19.23193
26.27000, 24.66846
26.29000, 37.34009
26.31000, 36.95398
26.33000, 43.30096
26.35000, 51.60608
26.37000, 57.24438
26.39000, 77.26184
26.41000, 106.3525
26.43000, 126.7953
26.45000, 146.2292
26.47000, 165.4524
26.49000, 183.1556
26.51000, 205.6941
26.53000, 220.1927
26.55000, 233.9254
26.57000, 237.4593
26.59000, 233.2454
26.61000, 230.7346
26.63000, 223.9801
26.65000, 221.2399
26.67000, 209.7730
26.69000, 192.7777
26.71000, 178.2028
26.73000, 160.4975
26.75000, 138.6260
26.77000, 106.8240
26.79000, 86.47760
26.81000, 73.71954
26.83000, 64.59686
26.85000, 61.26947
26.87000, 57.21527
26.89000, 55.71649
26.91000, 48.29694
26.93000, 33.48169
26.95000, 23.19281
26.97000, 17.19934
26.99000, 22.56934
27.01000, 16.51593
27.03000, 3.775146
27.05000, 1.022522
27.07000, 1.784485
27.09000, 7.494141
27.11000, 9.528442
27.13000, 13.81628
27.15000, 15.56775
27.17000, 17.48560
27.19000, 15.55463
27.21000, 18.02905
27.23000, 26.30585
27.25000, 40.20721
27.27000, 43.02411
27.29000, 42.03656
27.31000, 51.81152
27.33000, 60.88800
27.35000, 76.67169
27.37000, 108.8605
27.39000, 138.1818
27.41000, 157.3737
27.43000, 179.9987
27.45000, 198.5144
27.47000, 208.7578
27.49000, 217.2089
27.51000, 217.8167
27.53000, 210.5330
27.55000, 204.0358
27.57000, 198.0380
27.59000, 189.3956
27.61000, 176.2135
27.63000, 162.5498
27.65000, 153.1382
27.67000, 143.2874
27.69000, 131.2326
27.71000, 116.6961
27.73000, 101.8008
27.75000, 81.73993
27.77000, 67.40442
27.79000, 57.34418
27.81000, 45.52686
27.83000, 38.05603
27.85000, 21.57166
27.87000, 15.10645
27.89000, 22.25256
27.91000, 18.44073
27.93000, 10.71191
27.95000, 2.750000
27.97000, 3.752747
27.99000, 6.817627
28.01000, 10.61139
28.03000, 11.41754
28.05000, 3.222900
28.07000, 7.288757
28.09000, 12.43292
28.11000, 5.688232
28.13000, 1.584656
28.15000, 4.886292
28.17000, 6.362549
28.19000, 8.355408
28.21000, 12.81482
28.23000, 12.73798
28.25000, 12.86871
28.27000, 13.34619
28.29000, 11.81018
28.31000, 13.85095
28.33000, 15.24823
28.35000, 13.00031
28.37000, 14.30890
28.39000, 27.55719
28.41000, 28.66418
28.43000, 28.47766
28.45000, 34.62799
28.47000, 44.75500
28.49000, 51.94470
28.51000, 60.73822
28.53000, 68.86249
28.55000, 73.83435
28.57000, 78.84882
28.59000, 86.92096
28.61000, 79.55884
28.63000, 66.16724
28.65000, 58.92047
28.67000, 50.73621
28.69000, 47.90472
28.71000, 42.49182
28.73000, 39.95062
28.75000, 34.61102
28.77000, 28.52417
28.79000, 30.39703
28.81000, 27.08234
28.83000, 22.58148
28.85000, 26.40027
28.87000, 31.55963
28.89000, 37.70477
28.91000, 33.76349
28.93000, 21.51801
28.95000, 13.41504
28.97000, 7.617798
28.99000, 8.262390
29.01000, 10.92664
29.03000, 22.54858
29.05000, 19.59924
29.07000, 14.84668
29.09000, 25.56793
29.11000, 41.14490
29.13000, 43.86670
29.15000, 48.13116
29.17000, 48.69348
29.19000, 55.72650
29.21000, 72.04919
29.23000, 72.75281
29.25000, 82.98010
29.27000, 93.51807
29.29000, 103.7019
29.31000, 109.2674
29.33000, 106.9207
29.35000, 96.58765
29.37000, 85.91846
29.39000, 77.81897
29.41000, 73.61926
29.43000, 63.36523
29.45000, 57.72198
29.47000, 51.04443
29.49000, 46.21661
29.51000, 38.49261
29.53000, 28.10028
29.55000, 17.47357
29.57000, 13.28278
29.59000, 10.34558
29.61000, 9.755127
29.63000, 13.03534
29.65000, 11.62341
29.67000, 5.271057
29.69000, 4.449585
29.71000, 2.415649
29.73000, 5.040344
29.75000, 2.610718
29.77000, 0.1506350
29.79000, 3.296570
29.81000, 6.590515
29.83000, 3.925659
29.85000, 3.273193
29.87000, 2.422607
29.89000, 8.149719
29.91000, 12.04944
29.93000, 13.38971
29.95000, 16.58069
29.97000, 14.43231
29.99000, 4.997498
30.01000, 0.3217160
30.03000, 5.436584
30.05000, 4.947144
30.07000, 3.645203
30.09000, 4.106750
30.11000, 14.09937
30.13000, 19.10156
30.15000, 18.02942
30.17000, 19.11786
30.19000, 26.85889
30.21000, 27.69946
30.23000, 20.37732
30.25000, 22.87732
30.27000, 25.97455
30.29000, 26.93323
30.31000, 31.42761
30.33000, 33.05652
30.35000, 34.89502
30.37000, 33.74829
30.39000, 38.01862
30.41000, 44.16962
30.43000, 46.04230
30.45000, 46.53424
30.47000, 46.93561
30.49000, 46.81689
30.51000, 54.45709
30.53000, 59.97534
30.55000, 60.19287
30.57000, 63.12482
30.59000, 60.89392
30.61000, 61.81042
30.63000, 68.19836
30.65000, 63.09644
30.67000, 55.83301
30.69000, 62.80988
30.71000, 65.88904
30.73000, 68.87158
30.75000, 75.27441
30.77000, 74.05756
30.79000, 75.94000
30.81000, 77.76184
30.83000, 71.38391
30.85000, 69.75232
30.87000, 65.04303
30.89000, 63.35498
30.91000, 61.83942
30.93000, 54.01495
30.95000, 48.52386
30.97000, 40.92303
30.99000, 34.45044
31.01000, 32.15021
31.03000, 29.90723
31.05000, 33.41846
31.07000, 29.85913
31.09000, 22.55792
31.11000, 19.82703
31.13000, 18.31744
31.15000, 13.23407
31.17000, 8.902893
31.19000, 9.348999
31.21000, 19.29340
31.23000, 17.30811
31.25000, 13.90131
31.27000, 11.28168
31.29000, 7.271301
31.31000, 5.229187
31.33000, 5.627625
31.35000, 9.388000
31.37000, 21.54474
31.39000, 24.57172
31.41000, 35.30353
31.43000, 35.52332
31.45000, 27.89240
31.47000, 34.09094
31.49000, 45.78973
31.51000, 55.68079
31.53000, 73.81897
31.55000, 85.21332
31.57000, 99.47986
31.59000, 108.9596
31.61000, 120.4395
31.63000, 132.1826
31.65000, 133.4868
31.67000, 135.5681
31.69000, 141.5407
31.71000, 136.4073
31.73000, 136.4481
31.75000, 137.3720
31.77000, 132.6121
31.79000, 124.2501
31.81000, 114.3464
31.83000, 105.8068
31.85000, 98.68414
31.87000, 86.19769
31.89000, 71.89740
31.91000, 63.79913
31.93000, 55.16388
31.95000, 46.59973
31.97000, 36.95166
31.99000, 27.30060
32.01000, 21.01453
32.03000, 25.23663
32.05000, 19.00977
32.07000, 23.49298
32.09000, 30.28113
32.11000, 25.52979
32.13000, 36.81793
32.15000, 39.04279
32.17000, 43.01733
32.19000, 40.75592
32.21000, 37.83923
32.23000, 45.16614
32.25000, 40.58252
32.27000, 29.64709
32.29000, 31.85162
32.31000, 30.63904
32.33000, 25.02368
32.35000, 24.08423
32.37000, 23.68689
32.39000, 25.98145
32.41000, 32.61908
32.43000, 26.74292
32.45000, 19.11328
32.47000, 27.24994
32.49000, 22.20160
32.51000, 12.33337
32.53000, 16.98413
32.55000, 20.71790
32.57000, 13.09674
32.59000, 3.282593
32.61000, 5.2368000E-02
32.63000, 8.857666
32.65000, 10.06824
32.67000, 11.45703
32.69000, 10.44379
32.71000, 11.21497
32.73000, 12.43292
32.75000, 8.000854
32.77000, 5.481079
32.79000, 1.267700
32.81000, 10.76721
32.83000, 17.14246
32.85000, 19.99365
32.87000, 26.63123
32.89000, 36.28864
32.91000, 40.10205
32.93000, 42.97131
32.95000, 46.32349
32.97000, 52.72943
32.99000, 53.91333
33.01000, 61.35028
33.03000, 70.66211
33.05000, 72.31586
33.07000, 70.69141
33.09000, 68.33771
33.11000, 61.48486
33.13000, 58.50293
33.15000, 57.31976
33.17000, 57.81036
33.19000, 57.59595
33.21000, 64.79761
33.23000, 64.65820
33.25000, 69.72955
33.27000, 71.88965
33.29000, 66.13867
33.31000, 64.14337
33.33000, 61.28595
33.35000, 55.89435
33.37000, 51.26147
33.39000, 46.35944
33.41000, 47.07428
33.43000, 46.81506
33.45000, 41.94244
33.47000, 46.55170
33.49000, 56.85278
33.51000, 58.20355
33.53000, 58.14832
33.55000, 68.39618
33.57000, 61.21368
33.59000, 54.55872
33.61000, 52.14673
33.63000, 47.16968
33.65000, 44.36060
33.67000, 49.39838
33.69000, 52.48389
33.71000, 47.89105
33.73000, 42.58698
33.75000, 43.36279
33.77000, 42.83789
33.79000, 49.12500
33.81000, 44.46667
33.83000, 38.38599
33.85000, 42.52246
33.87000, 40.55212
33.89000, 33.61127
33.91000, 32.56122
33.93000, 33.67645
33.95000, 39.52765
33.97000, 44.95441
33.99000, 45.39374
34.01000, 43.52649
34.03000, 42.81360
34.05000, 44.93231
34.07000, 48.56744
34.09000, 45.15405
34.11000, 46.65607
34.13000, 47.35455
34.15000, 46.10156
34.17000, 32.60303
34.19000, 31.13983
34.21000, 34.76312
34.23000, 35.13989
34.25000, 39.75208
34.27000, 45.96173
34.29000, 44.42871
34.31000, 42.12726
34.33000, 36.12024
34.35000, 39.51666
34.37000, 31.29645
34.39000, 27.29370
34.41000, 25.33734
34.43000, 19.77136
34.45000, 16.93781
34.47000, 13.75177
34.49000, 5.364075
34.51000, 7.470520
34.53000, 6.784302
34.55000, 11.63806
34.57000, 18.15027
34.59000, 24.69348
34.61000, 28.38354
34.63000, 26.89191
34.65000, 22.81866
34.67000, 18.77985
34.69000, 28.44440
34.71000, 35.35834
34.73000, 36.84479
34.75000, 42.29449
34.77000, 42.43665
34.79000, 37.64618
34.81000, 43.30023
34.83000, 51.75891
34.85000, 50.33093
34.87000, 48.34521
34.89000, 45.15179
34.91000, 37.66583
34.93000, 40.86523
34.95000, 42.10205
34.97000, 41.22119
34.99000, 44.00970
35.01000, 35.82220
35.03000, 27.49963
35.05000, 35.29926
35.07000, 38.21216
35.09000, 37.19330
35.11000, 36.68292
35.13000, 34.51135
35.15000, 34.27722
35.17000, 41.10486
35.19000, 41.85187
35.21000, 39.59021
35.23000, 37.37329
35.25000, 35.26703
35.27000, 29.11243
35.29000, 19.97949
35.31000, 20.33020
35.33000, 16.46350
35.35000, 21.00354
35.37000, 18.24902
35.39000, 20.39087
35.41000, 19.57739
35.43000, 24.12592
35.45000, 28.46393
35.47000, 34.61163
35.49000, 36.85089
35.51000, 44.14569
35.53000, 46.01807
35.55000, 48.47900
35.57000, 46.71320
35.59000, 40.83905
35.61000, 31.84930
35.63000, 21.07855
35.65000, 14.86035
35.67000, 19.03174
35.69000, 16.65869
35.71000, 16.34119
35.73000, 18.83923
35.75000, 20.34088
35.77000, 22.01001
35.79000, 24.03540
35.81000, 22.46252
35.83000, 28.67029
35.85000, 36.26434
35.87000, 35.66180
35.89000, 30.01599
35.91000, 24.52869
35.93000, 19.71802
35.95000, 11.82825
35.97000, 6.523010
35.99000, 3.630859
36.01000, 2.133362
36.03000, 8.505676
36.05000, 11.33966
36.07000, 4.676758
36.09000, 0.7799680
36.11000, 7.824829
36.13000, 17.41434
36.15000, 13.47363
36.17000, 11.34863
36.19000, 8.599182
36.21000, 5.233948
36.23000, 3.136963
36.25000, 6.757629
36.27000, 6.969849
36.29000, 6.636475
36.31000, 7.146667
36.33000, 5.817383
36.35000, 17.51355
36.37000, 29.66925
36.39000, 37.70264
36.41000, 42.49554
36.43000, 43.34094
36.45000, 39.12701
36.47000, 41.70862
36.49000, 42.38678
36.51000, 34.98657
36.53000, 28.26685
36.55000, 35.60675
36.57000, 32.75629
36.59000, 29.10736
36.61000, 36.50104
36.63000, 40.61530
36.65000, 45.59418
36.67000, 41.67053
36.69000, 34.95056
36.71000, 32.74622
36.73000, 41.14746
36.75000, 40.87134
36.77000, 39.87775
36.79000, 40.52185
36.81000, 30.70245
36.83000, 24.95172
36.85000, 24.86163
36.87000, 21.58209
36.89000, 23.83984
36.91000, 21.65295
36.93000, 16.82269
36.95000, 15.42670
36.97000, 15.59119
36.99000, 29.45941
37.01000, 48.25226
37.03000, 58.82159
37.05000, 75.94965
37.07000, 91.04333
37.09000, 94.81366
37.11000, 91.54150
37.13000, 84.98114
37.15000, 82.14624
37.17000, 94.06311
37.19000, 100.2476
37.21000, 91.08960
37.23000, 78.75128
37.25000, 68.67871
37.27000, 69.80170
37.29000, 71.39728
37.31000, 65.33759
37.33000, 63.55438
37.35000, 69.29797
37.37000, 72.83911
37.39000, 84.04095
37.41000, 97.70386
37.43000, 90.23218
37.45000, 83.42017
37.47000, 83.11133
37.49000, 71.54132
37.51000, 60.38538
37.53000, 62.47778
37.55000, 61.86932
37.57000, 50.25452
37.59000, 35.34351
37.61000, 31.80621
37.63000, 27.75146
37.65000, 38.74744
37.67000, 27.41010
37.69000, 19.09045
37.71000, 17.25140
37.73000, 13.22015
37.75000, 3.938477
37.77000, 7.234558
37.79000, 6.537445
37.81000, 8.300293
37.83000, 9.226746
37.85000, 13.64490
37.87000, 20.17767
37.89000, 15.74612
37.91000, 12.87732
37.93000, 4.534180
37.95000, 2.644348
37.97000, 0.2452090
37.99000, 5.290833
38.01000, 10.63568
38.03000, 15.56506
38.05000, 26.67529
38.07000, 26.53506
38.09000, 27.85471
38.11000, 24.86395
38.13000, 15.07690
38.15000, 2.183655
38.17000, 2.018951
38.19000, 2.437836
38.21000, 5.894379
38.23000, 4.592590
38.25000, 4.615448
38.27000, 2.691833
38.29000, 0.9188540
38.31000, 7.6080002E-02
38.33000, 2.198730
38.35000, 7.369110
38.37000, 4.579102
38.39000, 0.2600710
38.41000, 6.654755
38.43000, 9.335815
38.45000, 12.44461
38.47000, 21.76144
38.49000, 27.86606
38.51000, 27.42322
38.53000, 32.60486
38.55000, 30.74060
38.57000, 37.52072
38.59000, 45.67676
38.61000, 43.63336
38.63000, 40.90518
38.65000, 31.33932
38.67000, 26.28525
38.69000, 26.90652
38.71000, 26.42004
38.73000, 24.12158
38.75000, 22.90421
38.77000, 20.60571
38.79000, 28.09015
38.81000, 23.59146
38.83000, 15.98868
38.85000, 10.25983
38.87000, 7.493866
38.89000, 8.362762
38.91000, 6.385590
38.93000, 10.72031
38.95000, 16.88992
38.97000, 22.24652
38.99000, 28.20694
39.01000, 29.55637
39.03000, 20.68365
39.05000, 25.17990
39.07000, 24.50906
39.09000, 20.19925
39.11000, 16.40622
39.13000, 13.67419
39.15000, 20.74112
39.17000, 20.59998
39.19000, 26.54071
39.21000, 26.38046
39.23000, 26.90018
39.25000, 31.33475
39.27000, 39.35532
39.29000, 41.29605
39.31000, 48.75378
39.33000, 50.88745
39.35000, 59.78214
39.37000, 67.49182
39.39000, 77.14435
39.41000, 71.76697
39.43000, 69.36749
39.45000, 72.34305
39.47000, 70.26248
39.49000, 62.40399
39.51000, 63.74344
39.53000, 63.08685
39.55000, 58.98532
39.57000, 57.14874
39.59000, 61.54617
39.61000, 57.73157
39.63000, 53.15198
39.65000, 45.43939
39.67000, 34.56882
39.69000, 39.02924
39.71000, 41.77161
39.73000, 42.33807
39.75000, 51.20752
39.77000, 53.08603
39.79000, 55.93356
39.81000, 62.23401
39.83000, 63.99857
39.85000, 76.55508
39.87000, 92.72464
39.89000, 97.36713
39.91000, 87.16357
39.93000, 89.81305
39.95000, 80.69937
39.97000, 79.99463
39.99000, 77.82376
40.01000, 79.02280
40.03000, 80.31570
40.05000, 76.54654
40.07000, 70.95523
40.09000, 82.15778
40.11000, 74.14423
40.13000, 75.06964
40.15000, 78.29102
40.17000, 91.85062
40.19000, 101.8111
40.21000, 91.13123
40.23000, 87.75128
40.25000, 84.15228
40.27000, 69.83325
40.29000, 65.98923
40.31000, 59.69418
40.33000, 47.98624
40.35000, 42.97253
40.37000, 33.65875
40.39000, 27.35513
40.41000, 25.60703
40.43000, 29.56299
40.45000, 41.24399
40.47000, 47.64392
40.49000, 34.67499
40.51000, 34.33670
40.53000, 23.68945
40.55000, 21.24368
40.57000, 25.73242
40.59000, 17.85995
40.61000, 10.88837
40.63000, 15.02618
40.65000, 0.2578430
40.67000, 1.766083
40.69000, 2.501740
40.71000, 6.593048
40.73000, 0.7165830
40.75000, 0.4453130
40.77000, 5.582520
40.79000, 7.746826
40.81000, 11.93860
40.83000, 9.951477
40.85000, 9.946411
40.87000, 1.069153
40.89000, 15.75821
40.91000, 21.62332
40.93000, 24.61368
40.95000, 26.82559
40.97000, 33.50623
40.99000, 46.48282
41.01000, 61.29352
41.03000, 83.99173
41.05000, 86.50208
41.07000, 93.04901
41.09000, 87.95340
41.11000, 97.15427
41.13000, 100.8935
41.15000, 94.66876
41.17000, 87.91290
41.19000, 99.42090
41.21000, 97.09589
41.23000, 95.06793
41.25000, 93.19409
41.27000, 79.12134
41.29000, 64.63574
41.31000, 51.33627
41.33000, 48.00891
41.35000, 54.55670
41.37000, 59.20453
41.39000, 61.32959
41.41000, 65.33691
41.43000, 74.29718
41.45000, 83.89459
41.47000, 87.93115
41.49000, 74.55383
41.51000, 60.73169
41.53000, 59.18069
41.55000, 57.22778
41.57000, 48.64609
41.59000, 44.48749
41.61000, 42.95807
41.63000, 47.10574
41.65000, 44.62158
41.67000, 47.99060
41.69000, 49.28278
41.71000, 52.61209
41.73000, 50.75653
41.75000, 50.95419
41.77000, 49.60297
41.79000, 54.26791
41.81000, 60.64011
41.83000, 60.22632
41.85000, 65.02383
41.87000, 69.34344
41.89000, 57.64322
41.91000, 32.93518
41.93000, 31.40836
41.95000, 37.47067
41.97000, 43.14618
41.99000, 55.40390
42.01000, 58.59073
42.03000, 52.82388
42.05000, 47.36914
42.07000, 40.34857
42.09000, 45.02924
42.11000, 46.62497
42.13000, 44.60202
42.15000, 58.67017
42.17000, 62.67252
42.19000, 60.09317
42.21000, 55.80908
42.23000, 52.14734
42.25000, 49.91592
42.27000, 54.08600
42.29000, 50.25449
42.31000, 30.61243
42.33000, 22.18176
42.35000, 21.26697
42.37000, 17.93985
42.39000, 18.64493
42.41000, 25.27127
42.43000, 28.24478
42.45000, 21.94257
42.47000, 16.21356
42.49000, 12.33981
42.51000, 6.718231
42.53000, 10.44891
42.55000, 13.36383
42.57000, 17.92822
42.59000, 25.85693
42.61000, 37.39182
42.63000, 36.93893
42.65000, 29.54633
42.67000, 22.14392
42.69000, 14.57474
42.71000, 12.87381
42.73000, 10.54010
42.75000, 18.44366
42.77000, 20.45984
42.79000, 26.83826
42.81000, 25.30881
42.83000, 23.41165
42.85000, 19.96567
42.87000, 14.04565
42.89000, 16.03735
42.91000, 27.41989
42.93000, 36.27542
42.95000, 38.27188
42.97000, 47.15103
42.99000, 62.20581
43.01000, 69.26013
43.03000, 72.25415
43.05000, 71.60809
43.07000, 69.72681
43.09000, 64.69980
43.11000, 59.24261
43.13000, 67.05151
43.15000, 68.53110
43.17000, 66.57513
43.19000, 64.32001
43.21000, 59.36182
43.23000, 62.33496
43.25000, 46.85922
43.27000, 39.83365
43.29000, 37.65372
43.31000, 36.06076
43.33000, 37.57413
43.35000, 52.17029
43.37000, 49.76178
43.39000, 40.01703
43.41000, 25.55978
43.43000, 3.000793
43.45000, 2.599884
43.47000, 11.91736
43.49000, 13.38184
43.51000, 1.051453
43.53000, 12.92270
43.55000, 13.45370
43.57000, 15.22437
43.59000, 12.63821
43.61000, 15.32257
43.63000, 13.78516
43.65000, 7.386963
43.67000, 22.77603
43.69000, 31.73032
43.71000, 20.49786
43.73000, 19.93567
43.75000, 19.20969
43.77000, 7.160950
43.79000, 3.374481
43.81000, 18.14325
43.83000, 19.70520
43.85000, 17.41644
43.87000, 23.75485
43.89000, 20.19562
43.91000, 26.22556
43.93000, 30.52869
43.95000, 24.12909
43.97000, 23.45468
43.99000, 26.71854
44.01000, 16.78058
44.03000, 12.41284
44.05000, 19.47235
44.07000, 22.91501
44.09000, 29.01688
44.11000, 28.82098
44.13000, 21.86020
44.15000, 28.04654
44.17000, 28.59216
44.19000, 35.49118
44.21000, 33.18164
44.23000, 15.20664
44.25000, 13.73111
44.27000, 15.09903
44.29000, 5.341431
44.31000, 10.59320
44.33000, 19.13031
44.35000, 21.33987
44.37000, 26.36771
44.39000, 11.37692
44.41000, 5.132416
44.43000, 8.832275
44.45000, 14.56427
44.47000, 16.88586
44.49000, 19.77066
44.51000, 18.11157
44.53000, 20.01892
44.55000, 16.94632
44.57000, 22.94409
44.59000, 23.32666
44.61000, 25.92755
44.63000, 15.09714
44.65000, 14.25226
44.67000, 18.37164
44.69000, 21.24646
44.71000, 18.48575
44.73000, 19.23511
44.75000, 15.50415
44.77000, 14.40555
44.79000, 6.057800
44.81000, 10.99841
44.83000, 14.57205
44.85000, 17.06665
44.87000, 23.14917
44.89000, 27.58218
44.91000, 21.05243
44.93000, 21.00055
44.95000, 18.69540
44.97000, 9.106995
44.99000, 10.72128
45.01000, 12.44720
45.03000, 18.19772
45.05000, 19.76880
45.07000, 14.07034
45.09000, 12.27533
45.11000, 10.40564
45.13000, 17.99908
45.15000, 25.58368
45.17000, 25.49023
45.19000, 26.81561
45.21000, 22.13574
45.23000, 18.53647
45.25000, 4.123840
45.27000, 1.897491
45.29000, 1.065674
45.31000, 1.342407
45.33000, 4.384918
45.35000, 11.05103
45.37000, 7.879486
45.39000, 7.569305
45.41000, 10.44812
45.43000, 11.50433
45.45000, 10.24860
45.47000, 15.22021
45.49000, 20.25998
45.51000, 13.36960
45.53000, 16.38397
45.55000, 17.37735
45.57000, 15.28799
45.59000, 17.67566
45.61000, 3.771393
45.63000, 3.208832
45.65000, 0.2294310
45.67000, 6.453918
45.69000, 8.152405
45.71000, 0.4387210
45.73000, 4.735199
45.75000, 20.59692
45.77000, 20.60468
45.79000, 19.71375
45.81000, 13.53012
45.83000, 8.509705
45.85000, 14.44067
45.87000, 20.93982
45.89000, 26.76440
45.91000, 22.50168
45.93000, 13.33447
45.95000, 1.241180
45.97000, 0.0000000E+00
##END=



