##NAMES=Uranophane
##RRUFFID=R050380
##IDEAL CHEMISTRY=Ca(U^6+^O_2_)_2_(SiO_3_OH)_2_&#183;5H_2_O
##LOCALITY=Grafton County, New Hampshire, USA
##OWNER=RRUFF
##SOURCE=University of Arizona Mineral Museum
##DESCRIPTION=Orange massive coating
##DIFFRACTION SAMPLE DESCRIPTION=Powder
##STATUS=The identification of this mineral has been confirmed by X-ray diffraction and chemical analysis
##URL=rruff.info/R050380
##MEASURED CHEMISTRY=(Ca_0.97_Pb_0.03_)(U_1.00_O_2_)_2_(Si_1.00_O_3_OH)_2_Â·5H_2_O
##CELL PARAMETERS=a: 15.971(5) b: 7.020(1) c: 6.670(2) alpha: 90. beta: 97.15(2) gamma: 90. volume: 742.1(3) crystal system: monoclinic
4.000, 0.000
4.017, 4.112
4.034, 109.416
4.051, 5.164
4.068, 134.897
4.085, 119.932
4.102, 122.500
4.119, 197.282
4.136, 76.029
4.153, 126.574
4.170, 86.819
4.187, 150.671
4.204, 159.028
4.221, 116.798
4.238, 106.914
4.255, 183.323
4.272, 213.995
4.289, 273.950
4.306, 167.203
4.323, 159.761
4.340, 267.587
4.357, 255.607
4.374, 311.749
4.391, 349.997
4.408, 182.281
4.425, 244.590
4.442, 289.955
4.459, 325.386
4.476, 290.893
4.493, 310.388
4.510, 379.919
4.527, 440.490
4.544, 352.507
4.561, 309.692
4.578, 353.154
4.595, 411.817
4.612, 430.919
4.629, 492.155
4.646, 452.466
4.663, 352.804
4.680, 362.897
4.697, 463.733
4.714, 442.531
4.731, 405.770
4.748, 409.994
4.765, 414.588
4.782, 416.588
4.799, 429.469
4.816, 421.432
4.833, 407.026
4.850, 393.192
4.867, 513.839
4.884, 462.540
4.901, 458.688
4.918, 416.762
4.935, 327.699
4.952, 345.707
4.969, 443.273
4.986, 362.415
5.003, 368.779
5.020, 474.890
5.037, 290.167
5.054, 347.953
5.071, 367.259
5.088, 276.068
5.105, 328.953
5.122, 368.853
5.139, 321.933
5.156, 298.760
5.173, 299.684
5.190, 299.350
5.207, 387.835
5.224, 275.885
5.241, 309.756
5.258, 383.691
5.275, 383.960
5.292, 313.502
5.309, 363.356
5.326, 372.850
5.343, 305.805
5.360, 318.989
5.377, 338.739
5.394, 334.077
5.411, 295.180
5.428, 241.187
5.445, 290.973
5.462, 274.795
5.479, 252.740
5.496, 255.164
5.513, 225.984
5.530, 224.499
5.547, 308.170
5.564, 211.145
5.581, 208.731
5.598, 252.106
5.615, 257.315
5.632, 262.713
5.649, 254.479
5.666, 175.294
5.683, 125.122
5.700, 215.576
5.717, 241.847
5.734, 117.554
5.751, 78.862
5.768, 161.715
5.785, 125.540
5.802, 109.551
5.819, 114.005
5.836, 96.783
5.853, 56.515
5.870, 81.310
5.887, 74.661
5.904, 93.725
5.921, 154.655
5.938, 105.215
5.955, 70.530
5.972, 50.694
5.989, 23.532
6.006, 80.294
6.023, 111.748
6.040, 41.359
6.057, 7.710
6.074, 99.725
6.091, 14.213
6.108, 37.270
6.125, 19.683
6.142, 38.524
6.159, 3.641
6.176, 18.330
6.193, 28.739
6.210, 14.158
6.227, 1.678
6.244, 79.620
6.261, 40.822
6.278, 10.331
6.295, 17.585
6.312, 18.828
6.329, 8.654
6.346, 45.598
6.363, 51.224
6.380, 33.126
6.397, 47.812
6.414, 29.590
6.431, 43.607
6.448, 30.173
6.465, 16.209
6.482, 10.935
6.499, 46.151
6.516, 26.502
6.533, 20.071
6.550, 11.332
6.567, 12.816
6.584, 1.539
6.601, 53.306
6.618, 21.844
6.635, 22.886
6.652, 14.008
6.669, 39.942
6.686, 54.836
6.703, 35.677
6.720, 40.453
6.737, 38.199
6.754, 54.822
6.771, 44.309
6.788, 69.773
6.805, 96.171
6.822, 106.359
6.839, 105.467
6.856, 97.651
6.873, 76.719
6.890, 52.856
6.907, 70.826
6.924, 157.625
6.941, 117.415
6.958, 72.124
6.975, 78.728
6.992, 54.307
7.009, 80.802
7.026, 96.337
7.043, 109.812
7.060, 87.905
7.077, 47.946
7.094, 148.094
7.111, 118.035
7.128, 126.025
7.145, 116.893
7.162, 182.656
7.179, 178.441
7.196, 145.302
7.213, 171.907
7.230, 167.227
7.247, 133.573
7.264, 151.742
7.281, 147.852
7.298, 241.823
7.315, 144.687
7.332, 217.430
7.349, 151.989
7.366, 188.675
7.383, 240.190
7.400, 155.887
7.417, 221.193
7.434, 193.576
7.451, 147.013
7.468, 160.153
7.485, 182.612
7.502, 186.903
7.519, 220.112
7.536, 225.126
7.553, 239.963
7.570, 192.961
7.587, 208.912
7.604, 165.631
7.621, 237.195
7.638, 237.134
7.655, 223.826
7.672, 162.476
7.689, 163.016
7.706, 213.234
7.723, 177.267
7.740, 163.739
7.757, 185.257
7.774, 234.039
7.791, 237.761
7.808, 224.935
7.825, 229.850
7.842, 243.832
7.859, 174.543
7.876, 135.172
7.893, 159.345
7.910, 182.641
7.927, 164.090
7.944, 189.421
7.961, 211.921
7.978, 196.301
7.995, 180.453
8.012, 223.526
8.029, 226.133
8.046, 227.103
8.063, 205.278
8.080, 181.088
8.097, 245.177
8.114, 242.262
8.131, 233.374
8.148, 230.807
8.165, 192.991
8.182, 176.976
8.199, 198.811
8.216, 175.005
8.233, 155.117
8.250, 203.437
8.267, 163.645
8.284, 260.086
8.301, 250.459
8.318, 159.813
8.335, 220.620
8.352, 180.039
8.369, 225.220
8.386, 248.926
8.403, 242.447
8.420, 147.844
8.437, 145.377
8.454, 179.883
8.471, 209.452
8.488, 125.597
8.505, 150.570
8.522, 147.016
8.539, 154.268
8.556, 149.758
8.573, 125.530
8.590, 123.885
8.607, 159.171
8.624, 148.971
8.641, 141.559
8.658, 148.765
8.675, 109.486
8.692, 133.914
8.709, 123.717
8.726, 116.913
8.743, 112.484
8.760, 100.140
8.777, 109.666
8.794, 123.363
8.811, 109.999
8.828, 106.745
8.845, 138.676
8.862, 139.656
8.879, 104.603
8.896, 114.449
8.913, 79.084
8.930, 100.479
8.947, 121.997
8.964, 105.993
8.981, 106.788
8.998, 112.216
9.015, 99.668
9.032, 101.882
9.049, 73.287
9.066, 68.788
9.083, 144.353
9.100, 135.723
9.117, 89.709
9.134, 110.343
9.151, 74.822
9.168, 82.304
9.185, 88.718
9.202, 56.379
9.219, 16.993
9.236, 58.439
9.253, 96.967
9.270, 62.450
9.287, 81.766
9.304, 76.133
9.321, 82.458
9.338, 89.152
9.355, 97.416
9.372, 118.963
9.389, 72.213
9.406, 98.595
9.423, 40.171
9.440, 126.371
9.457, 86.824
9.474, 61.141
9.491, 96.241
9.508, 29.376
9.525, 56.584
9.542, 50.788
9.559, 86.110
9.576, 86.434
9.593, 33.802
9.610, 74.954
9.627, 62.152
9.644, 85.152
9.661, 27.434
9.678, 80.695
9.695, 84.883
9.712, 91.798
9.729, 78.697
9.746, 61.791
9.763, 36.719
9.780, 41.573
9.797, 82.499
9.814, 22.616
9.831, 12.735
9.848, 28.783
9.865, 4.127
9.882, 49.308
9.899, 36.100
9.916, 54.713
9.933, 65.433
9.950, 6.243
9.967, 63.965
9.984, 83.021
10.001, 52.971
10.018, 33.848
10.035, 3.575
10.052, 17.515
10.069, 71.513
10.086, 66.684
10.103, 3.516
10.120, 11.200
10.137, 36.149
10.154, 27.075
10.171, 30.039
10.188, 31.905
10.205, 21.623
10.222, 10.705
10.239, 7.313
10.256, 11.000
10.273, 10.643
10.290, 21.507
10.307, 18.134
10.324, 33.084
10.341, 3.040
10.358, 10.750
10.375, 39.692
10.392, 27.452
10.409, 42.425
10.426, 0.629
10.443, 46.345
10.460, 19.261
10.477, 47.380
10.494, 48.312
10.511, 55.905
10.528, 22.828
10.545, 56.205
10.562, 40.034
10.579, 26.862
10.596, 45.782
10.613, 23.566
10.630, 6.303
10.647, 41.201
10.664, 21.066
10.681, 18.033
10.698, 7.464
10.715, 18.253
10.732, 31.091
10.749, 6.797
10.766, 81.077
10.783, 39.376
10.800, 101.165
10.817, 66.905
10.834, 26.742
10.851, 74.486
10.868, 83.216
10.885, 53.111
10.902, 90.178
10.919, 61.897
10.936, 64.656
10.953, 76.281
10.970, 96.363
10.987, 113.195
11.004, 99.010
11.021, 89.771
11.038, 119.566
11.055, 135.320
11.072, 149.035
11.089, 121.670
11.106, 113.330
11.123, 167.243
11.140, 206.105
11.157, 210.779
11.174, 200.539
11.191, 235.204
11.208, 209.848
11.225, 198.614
11.242, 249.151
11.259, 287.524
11.276, 303.149
11.293, 341.870
11.310, 361.435
11.327, 377.103
11.344, 442.727
11.361, 518.379
11.378, 562.060
11.395, 582.776
11.412, 594.583
11.429, 560.196
11.446, 592.920
11.463, 595.400
11.480, 578.213
11.497, 581.891
11.514, 570.462
11.531, 512.183
11.548, 513.626
11.565, 431.185
11.582, 388.721
11.599, 342.406
11.616, 341.094
11.633, 292.563
11.650, 240.206
11.667, 213.797
11.684, 146.486
11.701, 171.936
11.718, 161.610
11.735, 138.303
11.752, 131.027
11.769, 39.700
11.786, 65.304
11.803, 60.807
11.820, 48.333
11.837, 90.034
11.854, 78.486
11.871, 42.898
11.888, 23.379
11.905, 30.308
11.922, 54.257
11.939, 50.769
11.956, 27.363
11.973, 26.064
11.990, 25.462
12.007, 4.883
12.024, 15.324
12.041, 13.922
12.058, 54.443
12.075, 20.840
12.092, 7.298
12.109, 27.096
12.126, 22.555
12.143, 43.950
12.160, 66.380
12.177, 48.916
12.194, 11.416
12.211, 34.930
12.228, 62.455
12.245, 32.939
12.262, 3.838
12.279, 25.588
12.296, 15.054
12.313, 12.552
12.330, 46.097
12.347, 57.628
12.364, 36.293
12.381, 11.719
12.398, 20.771
12.415, 23.450
12.432, 22.231
12.449, 36.648
12.466, 26.054
12.483, 2.336
12.500, 6.839
12.517, 11.771
12.534, 10.614
12.551, 23.800
12.568, 10.124
12.585, 17.106
12.602, 35.660
12.619, 10.160
12.636, 18.738
12.653, 63.225
12.670, 48.653
12.687, 61.214
12.704, 23.692
12.721, 9.355
12.738, 17.113
12.755, 32.616
12.772, 2.872
12.789, 4.389
12.806, 8.006
12.823, 8.531
12.840, 41.138
12.857, 20.747
12.874, 34.230
12.891, 88.820
12.908, 22.409
12.925, 37.852
12.942, 85.713
12.959, 83.275
12.976, 26.880
12.993, 3.561
13.010, 20.995
13.027, 8.548
13.044, 22.098
13.061, 19.647
13.078, 17.194
13.095, 47.738
13.112, 20.281
13.129, 9.822
13.146, 23.704
13.163, 42.240
13.180, 57.774
13.197, 33.306
13.214, 16.847
13.231, 41.375
13.248, 6.901
13.265, 30.425
13.282, 48.947
13.299, 10.469
13.316, 25.992
13.333, 29.512
13.350, 24.034
13.367, 62.555
13.384, 95.074
13.401, 56.590
13.418, 64.108
13.435, 91.624
13.452, 78.147
13.469, 67.667
13.486, 70.186
13.503, 52.705
13.520, 75.221
13.537, 120.737
13.554, 123.251
13.571, 111.762
13.588, 97.274
13.605, 103.784
13.622, 102.318
13.639, 114.824
13.656, 137.330
13.673, 160.873
13.690, 154.410
13.707, 142.911
13.724, 133.416
13.741, 113.919
13.758, 105.421
13.775, 129.922
13.792, 119.422
13.809, 99.975
13.826, 132.615
13.843, 86.185
13.860, 128.726
13.877, 94.216
13.894, 71.705
13.911, 69.231
13.928, 58.772
13.945, 87.062
13.962, 106.547
13.979, 54.031
13.996, 16.498
14.013, 37.958
14.030, 27.415
14.047, 19.371
14.064, 31.022
14.081, 71.408
14.098, 43.865
14.115, 46.278
14.132, 9.366
14.149, 30.804
14.166, 52.313
14.183, 36.753
14.200, 61.191
14.217, 32.628
14.234, 40.983
14.251, 48.416
14.268, 63.847
14.285, 26.276
14.302, 78.447
14.319, 25.857
14.336, 18.221
14.353, 18.573
14.370, 18.995
14.387, 8.414
14.404, 29.829
14.421, 2.829
14.438, 9.541
14.455, 14.079
14.472, 6.722
14.489, 33.659
14.506, 35.019
14.523, 37.149
14.540, 49.092
14.557, 36.387
14.574, 6.148
14.591, 13.752
14.608, 4.010
14.625, 32.276
14.642, 43.620
14.659, 43.873
14.676, 53.160
14.693, 25.498
14.710, 34.834
14.727, 55.169
14.744, 40.470
14.761, 15.202
14.778, 17.476
14.795, 47.804
14.812, 34.815
14.829, 33.032
14.846, 41.804
14.863, 25.034
14.880, 24.352
14.897, 29.629
14.914, 31.943
14.931, 52.254
14.948, 5.532
14.965, 26.637
14.982, 59.940
14.999, 15.241
15.016, 34.553
15.033, 54.768
15.050, 62.025
15.067, 82.228
15.084, 53.674
15.101, 41.919
15.118, 32.160
15.135, 33.442
15.152, 42.684
15.169, 0.120
15.186, 47.127
15.203, 51.397
15.220, 48.664
15.237, 22.929
15.254, 33.140
15.271, 72.400
15.288, 49.662
15.305, 104.918
15.322, 66.172
15.339, 78.845
15.356, 97.105
15.373, 34.098
15.390, 85.370
15.407, 53.612
15.424, 120.852
15.441, 63.754
15.458, 71.991
15.475, 47.268
15.492, 62.500
15.509, 64.949
15.526, 79.280
15.543, 87.523
15.560, 46.019
15.577, 33.241
15.594, 49.461
15.611, 57.823
15.628, 73.082
15.645, 23.294
15.662, 60.504
15.679, 78.044
15.696, 20.268
15.713, 21.501
15.730, 54.700
15.747, 50.175
15.764, 51.370
15.781, 62.576
15.798, 42.419
15.815, 32.607
15.832, 17.792
15.849, 8.974
15.866, 13.156
15.883, 19.334
15.900, 50.510
15.917, 54.683
15.934, 21.975
15.951, 9.680
15.968, 10.525
15.985, 41.624
16.002, 46.922
16.019, 31.105
16.036, 36.201
16.053, 41.359
16.070, 33.482
16.087, 38.133
16.104, 34.266
16.121, 63.396
16.138, 76.525
16.155, 43.651
16.172, 49.854
16.189, 11.019
16.206, 56.115
16.223, 79.228
16.240, 74.338
16.257, 54.447
16.274, 70.553
16.291, 69.657
16.308, 87.758
16.325, 74.838
16.342, 59.936
16.359, 100.012
16.376, 121.052
16.393, 95.093
16.410, 102.132
16.427, 79.101
16.444, 141.182
16.461, 112.669
16.478, 139.650
16.495, 97.477
16.512, 156.729
16.529, 165.804
16.546, 173.877
16.563, 221.948
16.580, 179.020
16.597, 188.090
16.614, 155.987
16.631, 157.873
16.648, 202.339
16.665, 207.412
16.682, 193.483
16.699, 181.552
16.716, 176.620
16.733, 169.672
16.750, 146.736
16.767, 112.798
16.784, 122.859
16.801, 131.865
16.818, 109.878
16.835, 86.936
16.852, 104.993
16.869, 92.048
16.886, 95.104
16.903, 134.147
16.920, 89.186
16.937, 30.237
16.954, 45.286
16.971, 54.333
16.988, 44.224
17.005, 42.277
17.022, 44.329
17.039, 15.334
17.056, 0.619
17.073, 26.426
17.090, 23.469
17.107, 1.510
17.124, 29.548
17.141, 19.585
17.158, 30.619
17.175, 61.652
17.192, 74.684
17.209, 56.370
17.226, 31.399
17.243, 31.425
17.260, 26.450
17.277, 53.462
17.294, 43.484
17.311, 4.504
17.328, 21.522
17.345, 31.538
17.362, 4.448
17.379, 14.561
17.396, 8.407
17.413, 8.614
17.430, 79.615
17.447, 20.613
17.464, 7.009
17.481, 43.980
17.498, 29.032
17.515, 49.936
17.532, 0.346
17.549, 4.309
17.566, 16.273
17.583, 0.612
17.600, 32.358
17.617, 27.326
17.634, 2.293
17.651, 9.256
17.668, 32.218
17.685, 38.153
17.702, 1.888
17.719, 15.066
17.736, 11.980
17.753, 19.897
17.770, 16.978
17.787, 23.984
17.804, 15.924
17.821, 7.137
17.838, 29.795
17.855, 55.728
17.872, 71.628
17.889, 41.128
17.906, 26.983
17.923, 42.864
17.940, 35.793
17.957, 2.719
17.974, 0.606
17.991, 21.438
18.008, 24.216
18.025, 0.135
18.042, 7.051
18.059, 12.965
18.076, 11.878
18.093, 31.790
18.110, 18.701
18.127, 18.617
18.144, 53.533
18.161, 42.447
18.178, 29.359
18.195, 35.271
18.212, 25.186
18.229, 9.997
18.246, 22.910
18.263, 53.822
18.280, 64.732
18.297, 57.642
18.314, 61.552
18.331, 59.460
18.348, 74.367
18.365, 76.273
18.382, 65.179
18.399, 82.084
18.416, 115.988
18.433, 91.892
18.450, 116.945
18.467, 138.847
18.484, 149.749
18.501, 189.653
18.518, 147.557
18.535, 184.465
18.552, 224.376
18.569, 214.286
18.586, 264.195
18.603, 279.104
18.620, 272.011
18.637, 333.918
18.654, 365.826
18.671, 362.737
18.688, 384.650
18.705, 378.563
18.722, 386.475
18.739, 401.386
18.756, 411.296
18.773, 351.206
18.790, 365.115
18.807, 402.023
18.824, 380.930
18.841, 380.837
18.858, 321.743
18.875, 295.649
18.892, 261.554
18.909, 272.458
18.926, 236.361
18.943, 219.264
18.960, 203.166
18.977, 212.067
18.994, 170.968
19.011, 162.868
19.028, 155.768
19.045, 151.667
19.062, 71.566
19.079, 70.437
19.096, 64.038
19.113, 77.934
19.130, 64.831
19.147, 24.538
19.164, 37.433
19.181, 71.319
19.198, 42.212
19.215, 48.105
19.232, 35.997
19.249, 20.891
19.266, 45.783
19.283, 15.675
19.300, 29.567
19.317, 50.458
19.334, 24.348
19.351, 29.140
19.368, 68.029
19.385, 38.918
19.402, 39.306
19.419, 2.169
19.436, 2.730
19.453, 19.870
19.470, 31.755
19.487, 6.359
19.504, 20.859
19.521, 19.739
19.538, 31.577
19.555, 8.543
19.572, 52.115
19.589, 40.527
19.606, 2.461
19.623, 26.738
19.640, 45.611
19.657, 21.486
19.674, 49.235
19.691, 49.065
19.708, 50.939
19.725, 20.813
19.742, 52.354
19.759, 26.210
19.776, 8.053
19.793, 3.065
19.810, 1.754
19.827, 26.634
19.844, 46.500
19.861, 6.727
19.878, 24.227
19.895, 1.542
19.912, 11.578
19.929, 30.295
19.946, 27.169
19.963, 48.042
19.980, 20.915
19.997, 10.666
20.014, 16.361
20.031, 36.238
20.048, 33.119
20.065, 39.850
20.082, 68.692
20.099, 37.560
20.116, 28.429
20.133, 57.315
20.150, 85.212
20.167, 58.109
20.184, 17.011
20.201, 31.913
20.218, 44.815
20.235, 45.721
20.252, 47.627
20.269, 19.519
20.286, 35.434
20.303, 53.348
20.320, 53.262
20.337, 41.176
20.354, 33.089
20.371, 56.003
20.388, 42.916
20.405, 36.831
20.422, 44.745
20.439, 29.659
20.456, 16.572
20.473, 2.514
20.490, 32.397
20.507, 49.309
20.524, 18.220
20.541, 14.131
20.558, 21.041
20.575, 45.952
20.592, 44.862
20.609, 36.771
20.626, 29.681
20.643, 16.590
20.660, 57.499
20.677, 38.407
20.694, 71.316
20.711, 115.224
20.728, 85.132
20.745, 43.039
20.762, 66.946
20.779, 106.853
20.796, 38.759
20.813, 74.666
20.830, 128.571
20.847, 84.477
20.864, 86.382
20.881, 120.287
20.898, 105.192
20.915, 175.096
20.932, 159.000
20.949, 194.904
20.966, 142.808
20.983, 152.711
21.000, 166.614
21.017, 93.517
21.034, 121.419
21.051, 126.321
21.068, 180.223
21.085, 132.124
21.102, 89.026
21.119, 152.927
21.136, 128.829
21.153, 131.731
21.170, 142.633
21.187, 138.535
21.204, 114.437
21.221, 67.339
21.238, 77.241
21.255, 81.142
21.272, 95.043
21.289, 101.944
21.306, 80.845
21.323, 72.745
21.340, 121.645
21.357, 110.545
21.374, 71.445
21.391, 49.345
21.408, 41.244
21.425, 56.144
21.442, 41.045
21.459, 6.078
21.476, 4.199
21.493, 12.699
21.510, 9.596
21.527, 58.113
21.544, 35.013
21.561, 7.912
21.578, 23.820
21.595, 24.286
21.612, 9.805
21.629, 33.901
21.646, 9.161
21.663, 43.720
21.680, 18.284
21.697, 1.164
21.714, 8.045
21.731, 16.926
21.748, 34.806
21.765, 32.854
21.782, 38.735
21.799, 15.617
21.816, 13.640
21.833, 17.654
21.850, 41.202
21.867, 46.077
21.884, 21.953
21.901, 8.169
21.918, 5.164
21.935, 46.682
21.952, 64.838
21.969, 6.705
21.986, 105.572
22.003, 26.438
22.020, 23.305
22.037, 25.171
22.054, 37.039
22.071, 33.906
22.088, 31.773
22.105, 13.640
22.122, 39.715
22.139, 72.742
22.156, 37.609
22.173, 44.910
22.190, 38.776
22.207, 49.033
22.224, 56.898
22.241, 54.762
22.258, 18.611
22.275, 47.475
22.292, 119.337
22.309, 126.220
22.326, 80.082
22.343, 86.942
22.360, 85.802
22.377, 92.662
22.394, 94.521
22.411, 162.535
22.428, 200.505
22.445, 222.362
22.462, 228.218
22.479, 228.073
22.496, 258.928
22.513, 299.632
22.530, 348.486
22.547, 421.338
22.564, 466.190
22.581, 517.042
22.598, 546.893
22.615, 587.743
22.632, 625.593
22.649, 634.442
22.666, 695.291
22.683, 759.139
22.700, 781.987
22.717, 860.834
22.734, 905.680
22.751, 924.526
22.768, 922.372
22.785, 904.217
22.802, 874.062
22.819, 868.907
22.836, 847.750
22.853, 841.594
22.870, 878.437
22.887, 814.280
22.904, 717.123
22.921, 696.964
22.938, 561.806
22.955, 505.647
22.972, 450.488
22.989, 404.329
23.006, 342.169
23.023, 283.009
23.040, 263.848
23.057, 201.687
23.074, 223.526
23.091, 209.364
23.108, 198.202
23.125, 155.041
23.142, 127.881
23.159, 138.720
23.176, 129.560
23.193, 111.398
23.210, 121.237
23.227, 82.075
23.244, 84.913
23.261, 75.751
23.278, 41.589
23.295, 64.426
23.312, 68.263
23.329, 60.101
23.346, 69.938
23.363, 50.774
23.380, 62.611
23.397, 69.447
23.414, 90.283
23.431, 45.119
23.448, 26.955
23.465, 28.791
23.482, 25.626
23.499, 54.042
23.516, 44.575
23.533, 71.409
23.550, 65.244
23.567, 51.080
23.584, 51.916
23.601, 66.752
23.618, 64.587
23.635, 44.425
23.652, 35.622
23.669, 47.307
23.686, 28.547
23.703, 8.616
23.720, 36.216
23.737, 37.029
23.754, 31.860
23.771, 43.691
23.788, 0.478
23.805, 36.351
23.822, 16.180
23.839, 31.991
23.856, 15.820
23.873, 35.417
23.890, 7.228
23.907, 54.040
23.924, 33.852
23.941, 0.957
23.958, 34.417
23.975, 12.228
23.992, 3.042
24.009, 27.856
24.026, 74.670
24.043, 37.484
24.060, 13.298
24.077, 6.113
24.094, 28.927
24.111, 26.742
24.128, 7.557
24.145, 2.628
24.162, 17.815
24.179, 6.988
24.196, 38.209
24.213, 4.574
24.230, 21.644
24.247, 26.127
24.264, 12.898
24.281, 15.331
24.298, 22.432
24.315, 26.195
24.332, 16.042
24.349, 26.713
24.366, 12.467
24.383, 62.222
24.400, 27.977
24.417, 7.733
24.434, 2.512
24.451, 1.757
24.468, 2.996
24.485, 31.749
24.502, 14.503
24.519, 42.257
24.536, 20.012
24.553, 16.769
24.570, 21.526
24.587, 30.290
24.604, 38.065
24.621, 43.841
24.638, 47.617
24.655, 37.394
24.672, 4.172
24.689, 12.951
24.706, 54.733
24.723, 40.516
24.740, 33.301
24.757, 66.089
24.774, 101.882
24.791, 97.679
24.808, 102.476
24.825, 123.273
24.842, 123.078
24.859, 152.884
24.876, 171.690
24.893, 174.496
24.910, 166.304
24.927, 192.111
24.944, 204.920
24.961, 236.729
24.978, 244.538
24.995, 257.349
25.012, 262.159
25.029, 268.970
25.046, 244.782
25.063, 211.594
25.080, 195.407
25.097, 198.220
25.114, 176.034
25.131, 154.849
25.148, 165.848
25.165, 129.016
25.182, 147.832
25.199, 107.649
25.216, 115.466
25.233, 132.284
25.250, 74.103
25.267, 98.922
25.284, 119.742
25.301, 88.626
25.318, 90.447
25.335, 82.269
25.352, 78.160
25.369, 124.983
25.386, 139.806
25.403, 85.630
25.420, 151.456
25.437, 153.397
25.454, 159.224
25.471, 162.051
25.488, 145.879
25.505, 183.708
25.522, 214.537
25.539, 295.369
25.556, 296.203
25.573, 307.041
25.590, 332.879
25.607, 369.717
25.624, 372.557
25.641, 430.397
25.658, 509.238
25.675, 473.079
25.692, 487.924
25.709, 502.779
25.726, 458.637
25.743, 413.813
25.760, 431.673
25.777, 394.533
25.794, 365.395
25.811, 336.257
25.828, 325.952
25.845, 289.815
25.862, 260.680
25.879, 282.403
25.896, 263.269
25.913, 217.141
25.930, 185.014
25.947, 159.888
25.964, 148.763
25.981, 120.508
25.998, 81.389
26.015, 81.272
26.032, 100.155
26.049, 127.039
26.066, 78.925
26.083, 75.811
26.100, 139.698
26.117, 74.586
26.134, 104.475
26.151, 108.365
26.168, 118.255
26.185, 134.939
26.202, 80.673
26.219, 75.566
26.236, 90.026
26.253, 115.922
26.270, 137.428
26.287, 109.326
26.304, 84.226
26.321, 89.141
26.338, 124.043
26.355, 104.947
26.372, 123.831
26.389, 102.737
26.406, 84.645
26.423, 133.554
26.440, 153.465
26.457, 87.377
26.474, 52.134
26.491, 87.936
26.508, 91.853
26.525, 49.771
26.542, 84.691
26.559, 53.612
26.576, 62.818
26.593, 79.742
26.610, 102.941
26.627, 80.584
26.644, 120.512
26.661, 114.442
26.678, 107.528
26.695, 121.460
26.712, 108.721
26.729, 90.041
26.746, 106.977
26.763, 97.422
26.780, 138.929
26.797, 81.940
26.814, 119.448
26.831, 194.390
26.848, 185.332
26.865, 171.972
26.882, 223.917
26.899, 232.863
26.916, 239.809
26.933, 303.757
26.950, 307.737
26.967, 204.687
26.984, 203.637
27.001, 220.589
27.018, 178.542
27.035, 96.495
27.052, 68.450
27.069, 74.408
27.086, 46.364
27.103, 34.322
27.120, 23.280
27.137, 14.240
27.154, 1.200
27.171, 4.839
27.188, 7.878
27.205, 13.079
27.222, 47.038
27.239, 35.998
27.256, 15.959
27.273, 34.920
27.290, 21.883
27.307, 7.846
27.324, 2.189
27.341, 2.775
27.358, 18.741
27.375, 2.293
27.392, 23.674
27.409, 57.641
27.426, 44.609
27.443, 6.774
27.460, 3.256
27.477, 17.713
27.494, 58.684
27.511, 85.655
27.528, 37.628
27.545, 38.601
27.562, 33.575
27.579, 34.550
27.596, 39.148
27.613, 60.124
27.630, 1.102
27.647, 4.080
27.664, 47.063
27.681, 58.047
27.698, 82.032
27.715, 85.018
27.732, 92.004
27.749, 66.008
27.766, 49.996
27.783, 125.988
27.800, 113.980
27.817, 142.973
27.834, 152.967
27.851, 146.962
27.868, 203.958
27.885, 209.955
27.902, 247.952
27.919, 295.960
27.936, 338.968
27.953, 369.976
27.970, 455.986
27.987, 460.003
28.004, 456.021
28.021, 512.041
28.038, 599.061
28.055, 660.082
28.072, 664.103
28.089, 656.125
28.106, 649.147
28.123, 680.171
28.140, 697.194
28.157, 666.218
28.174, 598.243
28.191, 511.268
28.208, 507.294
28.225, 463.322
28.242, 393.355
28.259, 385.388
28.276, 394.435
28.293, 394.483
28.310, 353.537
28.327, 267.592
28.344, 235.647
28.361, 183.717
28.378, 134.792
28.395, 139.868
28.412, 114.948
28.429, 112.029
28.446, 73.110
28.463, 32.191
28.480, 22.273
28.497, 11.356
28.514, 35.440
28.531, 37.524
28.548, 14.609
28.565, 25.697
28.582, 11.785
28.599, 4.123
28.616, 32.973
28.633, 19.930
28.650, 42.844
28.667, 4.224
28.684, 4.295
28.701, 1.633
28.718, 18.436
28.735, 4.493
28.752, 5.426
28.769, 3.638
28.786, 7.298
28.803, 8.238
28.820, 16.183
28.837, 8.138
28.854, 16.903
28.871, 45.944
28.888, 26.015
28.905, 38.011
28.922, 58.038
28.939, 75.071
28.956, 7.104
28.973, 1.137
28.990, 41.169
29.007, 68.202
29.024, 34.235
29.041, 65.268
29.058, 78.301
29.075, 25.334
29.092, 2.368
29.109, 39.401
29.126, 70.435
29.143, 70.468
29.160, 70.502
29.177, 66.536
29.194, 47.569
29.211, 14.419
29.228, 39.102
29.245, 36.136
29.262, 19.170
29.279, 19.204
29.296, 29.239
29.313, 45.273
29.330, 66.308
29.347, 50.342
29.364, 54.312
29.381, 44.347
29.398, 11.382
29.415, 23.348
29.432, 10.383
29.449, 12.418
29.466, 1.547
29.483, 7.486
29.500, 27.404
29.517, 24.437
29.534, 35.471
29.551, 14.504
29.568, 10.537
29.585, 16.571
29.602, 5.604
29.619, 8.362
29.636, 16.665
29.653, 5.693
29.670, 30.721
29.687, 14.748
29.704, 36.775
29.721, 44.803
29.738, 13.831
29.755, 49.858
29.772, 2.886
29.789, 70.913
29.806, 56.940
29.823, 88.967
29.840, 68.994
29.857, 140.020
29.874, 127.047
29.891, 148.073
29.908, 231.100
29.925, 189.126
29.942, 273.152
29.959, 276.178
29.976, 387.204
29.993, 449.229
30.010, 505.010
30.027, 537.035
30.044, 614.060
30.061, 663.084
30.078, 706.108
30.095, 717.132
30.112, 754.156
30.129, 769.179
30.146, 774.202
30.163, 790.225
30.180, 790.247
30.197, 754.269
30.214, 701.291
30.231, 695.313
30.248, 671.334
30.265, 630.354
30.282, 577.375
30.299, 496.967
30.316, 433.987
30.333, 436.006
30.350, 442.025
30.367, 432.043
30.384, 344.519
30.401, 289.426
30.418, 306.443
30.435, 310.459
30.452, 293.474
30.469, 251.489
30.486, 205.503
30.503, 206.516
30.520, 260.528
30.537, 257.540
30.554, 237.552
30.571, 234.562
30.588, 276.975
30.605, 270.139
30.622, 292.805
30.639, 302.066
30.656, 326.072
30.673, 363.853
30.690, 377.309
30.707, 410.791
30.724, 390.801
30.741, 469.649
30.758, 446.651
30.775, 432.325
30.792, 479.941
30.809, 476.941
30.826, 506.433
30.843, 539.862
30.860, 536.790
30.877, 550.220
30.894, 525.218
30.911, 511.215
30.928, 557.515
30.945, 585.511
30.962, 593.822
30.979, 671.817
30.996, 581.812
31.013, 649.776
31.030, 582.770
31.047, 519.763
31.064, 500.757
31.081, 478.750
31.098, 432.742
31.115, 380.734
31.132, 388.724
31.149, 326.715
31.166, 301.706
31.183, 318.697
31.200, 243.687
31.217, 183.677
31.234, 193.667
31.251, 158.657
31.268, 127.649
31.285, 132.640
31.302, 147.631
31.319, 104.622
31.336, 84.613
31.353, 93.603
31.370, 71.592
31.387, 66.582
31.404, 59.571
31.421, 64.561
31.438, 44.550
31.455, 44.539
31.472, 52.528
31.489, 48.516
31.506, 62.309
31.523, 58.297
31.540, 54.286
31.557, 34.274
31.574, 14.262
31.591, 11.249
31.608, 36.236
31.625, 76.224
31.642, 65.210
31.659, 34.575
31.676, 56.561
31.693, 18.547
31.710, 13.467
31.727, 26.510
31.744, 44.487
31.761, 53.464
31.778, 77.440
31.795, 35.417
31.812, 62.376
31.829, 76.352
31.846, 54.328
31.863, 51.304
31.880, 81.279
31.897, 61.255
31.914, 64.230
31.931, 111.205
31.948, 57.180
31.965, 19.154
31.982, 98.129
31.999, 112.104
32.016, 44.078
32.033, 25.948
32.050, 54.011
32.067, 49.970
32.084, 71.929
32.101, 54.888
32.118, 23.846
32.135, 25.805
32.152, 58.763
32.169, 44.722
32.186, 29.680
32.203, 40.639
32.220, 65.597
32.237, 71.555
32.254, 44.513
32.271, 31.471
32.288, 8.429
32.305, 3.391
32.322, 7.647
32.339, 3.310
32.356, 15.267
32.373, 27.223
32.390, 17.180
32.407, 37.863
32.424, 12.926
32.441, 3.002
32.458, 16.931
32.475, 33.859
32.492, 14.788
32.509, 16.716
32.526, 19.645
32.543, 24.579
32.560, 36.513
32.577, 36.447
32.594, 17.381
32.611, 5.685
32.628, 1.754
32.645, 9.825
32.662, 23.902
32.679, 3.009
32.696, 0.080
32.713, 18.163
32.730, 7.245
32.747, 0.668
32.764, 9.582
32.781, 26.496
32.798, 35.411
32.815, 76.328
32.832, 11.246
32.849, 1.165
32.866, 12.089
32.883, 41.015
32.900, 64.947
32.917, 38.882
32.934, 10.817
32.951, 30.755
32.968, 17.706
32.985, 21.342
33.002, 6.599
33.019, 16.540
33.036, 31.481
33.053, 37.423
33.070, 62.366
33.087, 37.310
33.104, 35.260
33.121, 43.211
33.138, 7.162
33.155, 57.113
33.172, 99.069
33.189, 101.026
33.206, 61.983
33.223, 122.942
33.240, 124.901
33.257, 136.860
33.274, 187.820
33.291, 249.780
33.308, 206.741
33.325, 234.703
33.342, 277.665
33.359, 308.628
33.376, 273.592
33.393, 319.558
33.410, 311.524
33.427, 373.490
33.444, 421.457
33.461, 407.425
33.478, 420.393
33.495, 438.362
33.512, 446.332
33.529, 386.302
33.546, 347.274
33.563, 345.246
33.580, 305.220
33.597, 331.193
33.614, 306.168
33.631, 291.143
33.648, 242.119
33.665, 200.095
33.682, 184.073
33.699, 153.053
33.716, 139.035
33.733, 142.017
33.750, 114.001
33.767, 85.984
33.784, 65.969
33.801, 58.954
33.818, 82.940
33.835, 107.926
33.852, 77.914
33.869, 65.902
33.886, 34.892
33.903, 3.881
33.920, 37.872
33.937, 42.863
33.954, 59.856
33.971, 51.849
33.988, 92.843
34.005, 113.838
34.022, 102.834
34.039, 143.831
34.056, 159.828
34.073, 119.071
34.090, 170.071
34.107, 187.071
34.124, 224.071
34.141, 240.073
34.158, 243.076
34.175, 272.079
34.192, 258.083
34.209, 290.089
34.226, 300.095
34.243, 347.102
34.260, 368.110
34.277, 349.119
34.294, 374.128
34.311, 316.139
34.328, 333.982
34.345, 311.994
34.362, 342.478
34.379, 368.492
34.396, 318.507
34.413, 340.523
34.430, 320.631
34.447, 296.192
34.464, 239.321
34.481, 280.341
34.498, 234.362
34.515, 231.384
34.532, 174.408
34.549, 199.433
34.566, 164.624
34.583, 141.651
34.600, 130.679
34.617, 92.708
34.634, 107.738
34.651, 102.366
34.668, 117.243
34.685, 75.620
34.702, 67.118
34.719, 68.153
34.736, 55.142
34.753, 17.016
34.770, 25.579
34.787, 56.616
34.804, 42.660
34.821, 64.705
34.838, 73.751
34.855, 45.801
34.872, 11.852
34.889, 2.443
34.906, 28.496
34.923, 37.556
34.940, 31.617
34.957, 31.774
34.974, 49.199
34.991, 47.750
35.008, 35.819
35.025, 50.574
35.042, 64.644
35.059, 74.716
35.076, 97.792
35.093, 106.918
35.110, 73.132
35.127, 42.492
35.144, 72.593
35.161, 62.691
35.178, 95.781
35.195, 54.550
35.212, 91.988
35.229, 120.089
35.246, 162.195
35.263, 103.302
35.280, 108.409
35.297, 111.517
35.314, 69.625
35.331, 76.734
35.348, 58.844
35.365, 53.960
35.382, 75.076
35.399, 60.478
35.416, 111.595
35.433, 64.712
35.450, 44.831
35.467, 92.954
35.484, 106.079
35.501, 104.204
35.518, 107.329
35.535, 130.455
35.552, 98.581
35.569, 43.708
35.586, 93.835
35.603, 106.963
35.620, 84.091
35.637, 128.220
35.654, 125.349
35.671, 120.478
35.688, 152.612
35.705, 230.747
35.722, 206.883
35.739, 166.018
35.756, 182.154
35.773, 214.328
35.790, 200.469
35.807, 203.611
35.824, 206.752
35.841, 162.894
35.858, 167.036
35.875, 199.178
35.892, 177.321
35.909, 181.464
35.926, 183.607
35.943, 133.750
35.960, 137.894
35.977, 140.038
35.994, 126.284
36.011, 155.428
36.028, 160.573
36.045, 118.723
36.062, 72.868
36.079, 59.013
36.096, 76.158
36.113, 130.311
36.130, 119.464
36.147, 62.618
36.164, 40.771
36.181, 29.925
36.198, 23.078
36.215, 35.232
36.232, 61.386
36.249, 48.540
36.266, 46.694
36.283, 75.849
36.300, 63.003
36.317, 79.157
36.334, 30.311
36.351, 16.516
36.368, 15.631
36.385, 2.222
36.402, 3.927
36.419, 22.076
36.436, 9.224
36.453, 3.627
36.470, 59.600
36.487, 44.758
36.504, 63.920
36.521, 28.082
36.538, 38.244
36.555, 58.575
36.572, 32.736
36.589, 21.103
36.606, 2.048
36.623, 16.199
36.640, 6.369
36.657, 8.520
36.674, 6.669
36.691, 37.821
36.708, 24.113
36.725, 18.294
36.742, 25.455
36.759, 46.616
36.776, 67.197
36.793, 43.401
36.810, 13.608
36.827, 27.775
36.844, 45.942
36.861, 27.150
36.878, 6.702
36.895, 2.967
36.912, 9.832
36.929, 14.338
36.946, 36.739
36.963, 14.897
36.980, 1.945
36.997, 5.775
37.014, 23.624
37.031, 21.514
37.048, 17.651
37.065, 12.796
37.082, 24.953
37.099, 6.233
37.116, 0.062
37.133, 1.412
37.150, 18.996
37.167, 6.268
37.184, 7.447
37.201, 11.567
37.218, 9.313
37.235, 3.871
37.252, 13.221
37.269, 19.068
37.286, 16.173
37.303, 28.278
37.320, 58.380
37.337, 28.482
37.354, 44.612
37.371, 34.808
37.388, 64.911
37.405, 40.007
37.422, 0.898
37.439, 48.192
37.456, 66.298
37.473, 44.385
37.490, 36.626
37.507, 55.710
37.524, 65.792
37.541, 35.873
37.558, 39.953
37.575, 57.031
37.592, 82.107
37.609, 47.181
37.626, 38.254
37.643, 43.325
37.660, 62.395
37.677, 96.463
37.694, 75.529
37.711, 75.671
37.728, 102.733
37.745, 102.794
37.762, 86.853
37.779, 36.911
37.796, 10.966
37.813, 82.019
37.830, 28.071
37.847, 33.121
37.864, 49.169
37.881, 72.214
37.898, 66.259
37.915, 57.301
37.932, 85.349
37.949, 61.396
37.966, 37.440
37.983, 54.491
38.000, 22.540
38.017, 6.587
38.034, 38.632
38.051, 38.674
38.068, 19.714
38.085, 29.753
38.102, 46.789
38.119, 26.828
38.136, 41.865
38.153, 67.899
38.170, 56.932
38.187, 57.966
38.204, 39.998
38.221, 40.031
38.238, 61.061
38.255, 52.089
38.272, 45.115
38.289, 24.139
38.306, 40.161
38.323, 46.181
38.340, 47.199
38.357, 57.215
38.374, 18.228
38.391, 47.408
38.408, 54.417
38.425, 62.382
38.442, 65.387
38.459, 64.389
38.476, 25.390
38.493, 9.302
38.510, 67.302
38.527, 44.300
38.544, 62.295
38.561, 55.289
38.578, 5.280
38.595, 25.268
38.612, 41.253
38.629, 56.071
38.646, 56.052
38.663, 17.031
38.680, 29.007
38.697, 23.981
38.714, 40.953
38.731, 5.923
38.748, 15.889
38.765, 78.853
38.782, 32.815
38.799, 0.226
38.816, 13.727
38.833, 13.678
38.850, 29.625
38.867, 50.571
38.884, 13.514
38.901, 0.455
38.918, 8.389
38.935, 14.321
38.952, 19.710
38.969, 13.363
38.986, 33.550
39.003, 52.461
39.020, 9.726
39.037, 25.814
39.054, 40.227
39.071, 36.120
39.088, 20.011
39.105, 16.900
39.122, 4.787
39.139, 3.332
39.156, 2.506
39.173, 14.771
39.190, 3.811
39.207, 8.650
39.224, 54.491
39.241, 44.339
39.258, 0.494
39.275, 26.998
39.292, 7.176
39.309, 37.637
39.326, 42.448
39.343, 28.258
39.360, 25.066
39.377, 10.872
39.394, 4.675
39.411, 11.524
39.428, 27.266
39.445, 49.054
39.462, 30.555
39.479, 13.340
39.496, 21.122
39.513, 14.097
39.530, 18.672
39.547, 33.439
39.564, 83.205
39.581, 54.968
39.598, 55.730
39.615, 56.490
39.632, 30.249
39.649, 60.005
39.666, 71.760
39.683, 46.513
39.700, 54.266
39.717, 26.017
39.734, 13.234
39.751, 36.504
39.768, 64.240
39.785, 95.975
39.802, 57.708
39.819, 127.439
39.836, 115.131
39.853, 142.859
39.870, 137.586
39.887, 130.311
39.904, 146.034
39.921, 103.756
39.938, 174.476
39.955, 117.064
39.972, 175.781
39.989, 153.496
40.006, 170.135
40.023, 158.847
40.040, 154.557
40.057, 210.164
40.074, 215.871
40.091, 174.577
40.108, 153.275
40.125, 169.977
40.142, 166.689
40.159, 154.388
40.176, 137.085
40.193, 111.797
40.210, 114.141
40.227, 118.833
40.244, 90.086
40.261, 86.775
40.278, 92.462
40.295, 98.148
40.312, 87.832
40.329, 65.514
40.346, 71.195
40.363, 64.874
40.380, 41.551
40.397, 60.227
40.414, 40.883
40.431, 63.559
40.448, 88.234
40.465, 86.908
40.482, 49.580
40.499, 67.251
40.516, 111.917
40.533, 102.506
40.550, 67.172
40.567, 57.838
40.584, 106.501
40.601, 116.164
40.618, 124.655
40.635, 124.314
40.652, 121.972
40.669, 147.634
40.686, 128.294
40.703, 109.933
40.720, 98.591
40.737, 69.247
40.754, 111.902
40.771, 127.416
40.788, 146.042
40.805, 137.693
40.822, 109.343
40.839, 147.571
40.856, 128.180
40.873, 126.787
40.890, 62.433
40.907, 120.077
40.924, 117.679
40.941, 111.938
40.958, 156.484
40.975, 104.092
40.992, 154.727
41.009, 165.128
41.026, 190.772
41.043, 246.415
41.060, 227.042
41.077, 262.685
41.094, 242.334
41.111, 305.982
41.128, 398.627
41.145, 344.258
41.162, 387.763
41.179, 491.848
41.196, 474.991
41.213, 492.367
41.230, 419.887
41.247, 426.491
41.264, 459.151
41.281, 427.818
41.298, 447.159
41.315, 394.846
41.332, 418.778
41.349, 418.449
41.366, 361.120
41.383, 339.791
41.400, 297.462
41.417, 281.103
41.434, 231.677
41.451, 185.342
41.468, 219.013
41.485, 189.685
41.502, 190.358
41.519, 175.013
41.536, 145.687
41.553, 139.207
41.570, 94.882
41.587, 75.558
41.604, 84.235
41.621, 74.911
41.638, 93.588
41.655, 67.265
41.672, 42.943
41.689, 66.620
41.706, 101.298
41.723, 63.166
41.740, 47.845
41.757, 45.524
41.774, 84.126
41.791, 71.806
41.808, 78.487
41.825, 75.167
41.842, 51.849
41.859, 78.530
41.876, 102.213
41.893, 23.896
41.910, 19.579
41.927, 3.263
41.944, 31.948
41.961, 7.633
41.978, 31.682
41.995, 10.988
42.012, 3.659
42.029, 32.670
42.046, 30.985
42.063, 37.641
42.080, 15.298
42.097, 0.955
42.114, 25.613
42.131, 26.272
42.148, 17.932
42.165, 18.408
42.182, 31.244
42.199, 36.896
42.216, 0.451
42.233, 12.797
42.250, 44.852
42.267, 11.499
42.284, 37.146
42.301, 47.792
42.318, 36.438
42.335, 46.085
42.352, 50.733
42.369, 28.382
42.386, 16.032
42.403, 54.682
42.420, 46.333
42.437, 35.986
42.454, 53.639
42.471, 45.293
42.488, 42.948
42.505, 31.604
42.522, 8.261
42.539, 19.082
42.556, 9.568
42.573, 38.219
42.590, 31.871
42.607, 44.524
42.624, 46.178
42.641, 12.833
42.658, 25.490
42.675, 26.148
42.692, 42.807
42.709, 47.466
42.726, 15.127
42.743, 24.789
42.760, 36.452
42.777, 28.116
42.794, 57.781
42.811, 36.448
42.828, 40.116
42.845, 98.800
42.862, 45.470
42.879, 33.143
42.896, 79.818
42.913, 53.545
42.930, 103.222
42.947, 69.994
42.964, 88.423
42.981, 115.105
42.998, 157.791
43.015, 143.477
43.032, 165.165
43.049, 188.859
43.066, 208.555
43.083, 234.251
43.100, 265.955
43.117, 354.665
43.134, 375.380
43.151, 395.099
43.168, 414.818
43.185, 423.539
43.202, 404.393
43.219, 495.384
43.236, 472.115
43.253, 525.856
43.270, 564.602
43.287, 523.348
43.304, 568.852
43.321, 559.604
43.338, 482.365
43.355, 522.137
43.372, 461.913
43.389, 434.690
43.406, 489.471
43.423, 480.253
43.440, 482.044
43.457, 389.837
43.474, 343.632
43.491, 262.432
43.508, 290.233
43.525, 237.035
43.542, 207.838
43.559, 207.641
43.576, 166.776
43.593, 155.586
43.610, 103.507
43.627, 115.320
43.644, 72.133
43.661, 79.947
43.678, 81.762
43.695, 31.578
43.712, 61.395
43.729, 18.213
43.746, 3.968
43.763, 50.849
43.780, 63.668
43.797, 75.487
43.814, 84.312
43.831, 96.138
43.848, 106.965
43.865, 96.792
43.882, 90.621
43.899, 89.450
43.916, 98.280
43.933, 76.111
43.950, 61.943
43.967, 103.776
43.984, 88.609
44.001, 87.444
44.018, 77.411
44.035, 85.247
44.052, 113.084
44.069, 105.997
44.086, 130.836
44.103, 154.677
44.120, 164.518
44.137, 154.360
44.154, 174.204
44.171, 174.048
44.188, 135.894
44.205, 170.728
44.222, 177.576
44.239, 161.424
44.256, 109.258
44.273, 146.459
44.290, 122.311
44.307, 106.601
44.324, 104.455
44.341, 119.310
44.358, 97.167
44.375, 62.024
44.392, 85.883
44.409, 108.742
44.426, 130.603
44.443, 36.465
44.460, 7.328
44.477, 99.192
44.494, 113.057
44.511, 41.924
44.528, 75.791
44.545, 27.659
44.562, 42.529
44.579, 39.403
44.596, 51.274
44.613, 65.147
44.630, 62.021
44.647, 88.896
44.664, 59.772
44.681, 45.649
44.698, 59.527
44.715, 58.407
44.732, 53.287
44.749, 53.169
44.766, 21.051
44.783, 19.935
44.800, 22.819
44.817, 51.705
44.834, 67.591
44.851, 23.479
44.868, 0.632
44.885, 14.257
44.902, 8.148
44.919, 6.039
44.936, 2.068
44.953, 0.824
44.970, 3.282
44.987, 15.388
45.004, 14.500
45.021, 24.688
45.038, 5.578
45.055, 19.469
45.072, 4.361
45.089, 17.254
45.106, 18.153
45.123, 46.509
45.140, 35.375
45.157, 30.247
45.174, 10.626
45.191, 4.524
45.208, 26.423
45.225, 19.677
45.242, 21.786
45.259, 25.249
45.276, 18.163
45.293, 7.393
45.310, 11.276
45.327, 28.840
45.344, 27.830
45.361, 12.260
45.378, 8.442
45.395, 10.313
45.412, 21.184
45.429, 16.828
45.446, 12.702
45.463, 1.576
45.480, 18.549
45.497, 30.424
45.514, 6.299
45.531, 22.174
45.548, 16.052
45.565, 11.933
45.582, 40.813
45.599, 3.305
45.616, 25.574
45.633, 0.453
45.650, 54.330
45.667, 24.208
45.684, 22.086
45.701, 39.964
45.718, 44.843
45.735, 16.721
45.752, 57.600
45.769, 48.479
45.786, 28.169
45.803, 45.048
45.820, 77.927
45.837, 89.806
45.854, 136.686
45.871, 157.565
45.888, 161.445
45.905, 139.325
45.922, 172.205
45.939, 173.085
45.956, 206.965
45.973, 269.845
45.990, 255.725
46.007, 265.605
46.024, 304.485
46.041, 322.366
46.058, 341.254
46.075, 351.143
46.092, 348.031
46.109, 370.928
46.126, 430.825
46.143, 423.722
46.160, 391.619
46.177, 354.516
46.194, 360.412
46.211, 346.309
46.228, 365.206
46.245, 382.108
46.262, 387.009
46.279, 435.910
46.296, 435.812
46.313, 355.716
46.330, 357.620
46.347, 374.527
46.364, 398.434
46.381, 453.341
46.398, 407.247
46.415, 404.154
46.432, 442.060
46.449, 476.967
46.466, 388.873
46.483, 385.779
46.500, 462.685
46.517, 381.591
46.534, 374.497
46.551, 394.402
46.568, 383.308
46.585, 356.213
46.602, 342.119
46.619, 308.028
46.636, 307.937
46.653, 261.846
46.670, 282.755
46.687, 263.664
46.704, 183.573
46.721, 225.481
46.738, 211.389
46.755, 164.297
46.772, 133.205
46.789, 158.113
46.806, 144.020
46.823, 163.927
46.840, 154.836
46.857, 97.745
46.874, 68.654
46.891, 59.562
46.908, 61.455
46.925, 39.363
46.942, 31.282
46.959, 29.200
46.976, 50.070
46.993, 67.994
47.010, 19.823
47.027, 8.999
47.044, 2.077
47.061, 8.844
47.078, 30.765
47.095, 40.692
47.112, 5.618
47.129, 4.544
47.146, 4.530
47.163, 12.608
47.180, 12.696
47.197, 4.788
47.214, 21.116
47.231, 31.039
47.248, 19.962
47.265, 26.753
47.282, 0.582
47.299, 14.648
47.316, 3.724
47.333, 24.198
47.350, 7.119
47.367, 11.717
47.384, 23.804
47.401, 3.904
47.418, 29.993
47.435, 4.890
47.452, 11.214
47.469, 8.846
47.486, 2.913
47.503, 32.205
47.520, 5.666
47.537, 17.536
47.554, 41.407
47.571, 41.753
47.588, 64.107
47.605, 70.977
47.622, 85.979
47.639, 147.519
47.656, 174.388
47.673, 132.147
47.690, 231.016
47.707, 173.884
47.724, 225.752
47.741, 208.620
47.758, 275.488
47.775, 268.355
47.792, 323.223
47.809, 368.090
47.826, 367.957
47.843, 320.825
47.860, 348.692
47.877, 393.559
47.894, 459.426
47.911, 454.293
47.928, 412.159
47.945, 377.025
47.962, 381.891
47.979, 359.757
47.996, 313.622
48.013, 320.487
48.030, 286.352
48.047, 233.217
48.064, 254.081
48.081, 281.946
48.098, 212.810
48.115, 205.674
48.132, 215.537
48.149, 204.400
48.166, 223.263
48.183, 247.126
48.200, 214.988
48.217, 171.850
48.234, 208.712
48.251, 242.574
48.268, 268.435
48.285, 273.296
48.302, 281.157
48.319, 278.017
48.336, 287.877
48.353, 317.737
48.370, 314.596
48.387, 336.456
48.404, 358.314
48.421, 336.173
48.438, 350.031
48.455, 356.889
48.472, 344.747
48.489, 313.604
48.506, 357.461
48.523, 347.318
48.540, 366.174
48.557, 349.031
48.574, 335.887
48.591, 373.742
48.608, 415.598
48.625, 363.453
48.642, 360.308
48.659, 448.162
48.676, 433.017
48.693, 373.871
48.710, 335.725
48.727, 333.579
48.744, 338.432
48.761, 357.285
48.778, 325.139
48.795, 323.992
48.812, 361.844
48.829, 365.697
48.846, 372.550
48.863, 346.828
48.880, 334.681
48.897, 302.533
48.914, 315.385
48.931, 307.236
48.948, 291.088
48.965, 341.537
48.982, 286.388
48.999, 264.905
49.016, 299.429
49.033, 310.279
49.050, 249.272
49.067, 257.126
49.084, 213.681
49.101, 198.534
49.118, 212.793
49.135, 202.645
49.152, 208.497
49.169, 191.344
49.186, 169.734
49.203, 155.615
49.220, 144.625
49.237, 125.995
49.254, 140.447
49.271, 122.296
49.288, 102.145
49.305, 86.612
49.322, 75.876
49.339, 84.701
49.356, 68.210
49.373, 88.067
49.390, 103.923
49.407, 77.985
49.424, 50.288
49.441, 44.838
49.458, 42.699
49.475, 32.561
49.492, 0.649
49.509, 0.508
49.526, 16.364
49.543, 8.122
49.560, 24.978
49.577, 21.834
49.594, 5.311
49.611, 5.460
49.628, 8.386
49.645, 0.232
49.662, 20.076
49.679, 88.921
49.696, 45.767
49.713, 16.613
49.730, 25.458
49.747, 61.304
49.764, 22.150
49.781, 31.995
49.798, 12.840
49.815, 43.685
49.832, 65.530
49.849, 70.375
49.866, 71.220
49.883, 45.065
49.900, 39.910
49.917, 47.754
49.934, 82.599
49.951, 151.443
49.968, 128.288
49.985, 154.132
50.002, 168.976
50.019, 165.820
50.036, 167.665
50.053, 119.509
50.070, 179.353
50.087, 146.202
50.104, 176.050
50.121, 231.899
50.138, 213.748
50.155, 207.597
50.172, 221.446
50.189, 173.295
50.206, 187.144
50.223, 207.993
50.240, 239.843
50.257, 226.692
50.274, 183.542
50.291, 217.392
50.308, 197.242
50.325, 151.092
50.342, 172.942
50.359, 147.793
50.376, 127.644
50.393, 105.495
50.410, 129.346
50.427, 119.198
50.444, 74.050
50.461, 82.903
50.478, 87.756
50.495, 88.609
50.512, 74.463
50.529, 48.317
50.546, 39.172
50.563, 44.027
50.580, 55.885
50.597, 81.744
50.614, 66.603
50.631, 35.463
50.648, 20.324
50.665, 36.185
50.682, 59.046
50.699, 21.908
50.716, 16.774
50.733, 40.648
50.750, 57.526
50.767, 36.405
50.784, 26.284
50.801, 49.166
50.818, 55.049
50.835, 43.932
50.852, 34.816
50.869, 33.700
50.886, 6.415
50.903, 46.467
50.920, 1.349
50.937, 12.231
50.954, 26.114
50.971, 5.998
50.988, 41.118
51.005, 39.745
51.022, 10.392
51.039, 10.535
51.056, 74.317
51.073, 1.830
51.090, 28.022
51.107, 21.874
51.124, 19.728
51.141, 22.417
51.158, 22.427
51.175, 32.271
51.192, 27.115
51.209, 17.961
51.226, 20.809
51.243, 18.337
51.260, 4.511
51.277, 73.638
51.294, 19.175
51.311, 12.988
51.328, 26.198
51.345, 25.397
51.362, 2.392
51.379, 15.186
51.396, 18.982
51.413, 25.779
51.430, 1.577
51.447, 11.379
51.464, 89.189
51.481, 86.001
51.498, 79.813
51.515, 96.627
51.532, 77.274
51.549, 65.914
51.566, 109.733
51.583, 160.562
51.600, 141.392
51.617, 179.223
51.634, 180.578
51.651, 224.926
51.668, 258.759
51.685, 261.462
51.702, 300.297
51.719, 324.133
51.736, 301.970
51.753, 305.808
51.770, 312.646
51.787, 279.486
51.804, 309.327
51.821, 375.169
51.838, 369.011
51.855, 348.855
51.872, 319.700
51.889, 273.545
51.906, 277.392
51.923, 296.239
51.940, 286.088
51.957, 211.938
51.974, 202.788
51.991, 233.640
52.008, 238.492
52.025, 197.346
52.042, 141.201
52.059, 135.057
52.076, 149.915
52.093, 192.778
52.110, 97.626
52.127, 94.492
52.144, 158.360
52.161, 181.233
52.178, 168.108
52.195, 130.983
52.212, 88.861
52.229, 182.740
52.246, 150.620
52.263, 192.509
52.280, 118.400
52.297, 95.293
52.314, 183.186
52.331, 178.081
52.348, 181.978
52.365, 178.879
52.382, 263.782
52.399, 350.686
52.416, 276.598
52.433, 268.518
52.450, 311.444
52.467, 234.371
52.484, 283.299
52.501, 307.239
52.518, 311.188
52.535, 315.144
52.552, 348.101
52.569, 317.059
52.586, 279.019
52.603, 304.513
52.620, 356.477
52.637, 342.443
52.654, 344.409
52.671, 415.376
52.688, 390.345
52.705, 336.314
52.722, 335.284
52.739, 353.062
52.756, 385.593
52.773, 357.433
52.790, 316.407
52.807, 288.381
52.824, 251.781
52.841, 231.757
52.858, 224.733
52.875, 226.710
52.892, 207.688
52.909, 161.666
52.926, 150.219
52.943, 177.199
52.960, 152.180
52.977, 152.161
52.994, 116.143
53.011, 114.125
53.028, 82.511
53.045, 53.495
53.062, 84.814
53.079, 77.127
53.096, 116.114
53.113, 99.960
53.130, 96.948
53.147, 70.938
53.164, 61.928
53.181, 51.513
53.198, 63.505
53.215, 82.498
53.232, 138.492
53.249, 149.487
53.266, 93.482
53.283, 136.343
53.300, 81.341
53.317, 116.738
53.334, 127.738
53.351, 98.738
53.368, 190.127
53.385, 95.570
53.402, 118.575
53.419, 141.581
53.436, 156.588
53.453, 121.597
53.470, 91.607
53.487, 135.618
53.504, 131.631
53.521, 100.645
53.538, 165.660
53.555, 178.676
53.572, 140.694
53.589, 135.715
53.606, 137.737
53.623, 187.760
53.640, 140.785
53.657, 132.810
53.674, 163.839
53.691, 148.871
53.708, 158.905
53.725, 156.940
53.742, 146.977
53.759, 198.014
53.776, 178.053
53.793, 112.093
53.810, 85.134
53.827, 131.176
53.844, 157.219
53.861, 161.263
53.878, 136.308
53.895, 93.355
53.912, 82.402
53.929, 49.451
53.946, 8.500
53.963, 4.551
53.980, 32.602
53.997, 60.655
54.014, 48.708
54.031, 22.763
54.048, 20.819
54.065, 32.875
54.082, 47.958
54.099, 68.174
54.116, 22.141
54.133, 22.703
54.150, 28.350
54.167, 62.705
54.184, 57.687
54.201, 68.742
54.218, 58.798
54.235, 16.089
54.252, 60.146
54.269, 87.204
54.286, 83.250
54.303, 67.477
54.320, 86.537
54.337, 146.597
54.354, 91.658
54.371, 30.075
54.388, 35.868
54.405, 93.930
54.422, 54.098
54.439, 14.521
54.456, 109.384
54.473, 76.496
54.490, 72.562
54.507, 75.626
54.524, 39.375
54.541, 64.996
54.558, 92.620
54.575, 89.684
54.592, 27.748
54.609, 45.811
54.626, 8.125
54.643, 71.649
54.660, 30.707
54.677, 62.764
54.694, 55.821
54.711, 13.878
54.728, 54.935
54.745, 26.991
54.762, 11.953
54.779, 23.904
54.796, 12.870
54.813, 30.156
54.830, 6.182
54.847, 5.793
54.864, 4.228
54.881, 25.249
54.898, 28.269
54.915, 18.289
54.932, 31.308
54.949, 54.327
54.966, 67.348
54.983, 101.369
55.000, 92.389
55.017, 69.409
55.034, 75.429
55.051, 89.448
55.068, 96.479
55.085, 117.509
55.102, 119.541
55.119, 108.577
55.136, 125.612
55.153, 142.648
55.170, 101.684
55.187, 115.719
55.204, 152.755
55.221, 148.796
55.238, 109.837
55.255, 123.878
55.272, 136.919
55.289, 141.959
55.306, 106.000
55.323, 114.045
55.340, 173.090
55.357, 140.155
55.374, 135.219
55.391, 150.283
55.408, 156.359
55.425, 145.441
55.442, 184.524
55.459, 191.606
55.476, 188.688
55.493, 190.769
55.510, 212.851
55.527, 230.932
55.544, 275.013
55.561, 284.093
55.578, 288.173
55.595, 253.253
55.612, 180.333
55.629, 244.412
55.646, 167.491
55.663, 243.570
55.680, 188.649
55.697, 181.727
55.714, 209.805
55.731, 213.882
55.748, 225.959
55.765, 227.036
55.782, 248.113
55.799, 218.189
55.816, 191.265
55.833, 187.340
55.850, 149.415
55.867, 155.489
55.884, 134.563
55.901, 168.637
55.918, 129.710
55.935, 146.783
55.952, 144.856
55.969, 76.928
55.986, 92.999
56.003, 78.070
56.020, 82.141
56.037, 70.211
56.054, 75.281
56.071, 56.350
56.088, 12.419
56.105, 3.487
56.122, 0.554
56.139, 11.381
56.156, 1.675
56.173, 21.746
56.190, 2.200
56.207, 12.150
56.224, 39.892
56.241, 23.932
56.258, 1.027
56.275, 19.011
56.292, 8.047
56.309, 28.916
56.326, 0.103
56.343, 34.119
56.360, 32.135
56.377, 27.150
56.394, 2.835
56.411, 8.824
56.428, 13.179
56.445, 1.182
56.462, 18.817
56.479, 25.828
56.496, 13.856
56.513, 5.107
56.530, 14.069
56.547, 39.970
56.564, 22.032
56.581, 22.108
56.598, 25.802
56.615, 31.711
56.632, 37.620
56.649, 11.528
56.666, 9.098
56.683, 8.802
56.700, 55.702
56.717, 45.602
56.734, 24.501
56.751, 67.400
56.768, 8.299
56.785, 48.197
56.802, 11.287
56.819, 43.626
56.836, 37.656
56.853, 47.552
56.870, 75.449
56.887, 99.920
56.904, 27.816
56.921, 63.712
56.938, 32.608
56.955, 66.504
56.972, 82.404
56.989, 48.307
57.006, 32.217
57.023, 42.126
57.040, 66.035
57.057, 56.946
57.074, 47.856
57.091, 70.767
57.108, 42.681
57.125, 53.599
57.142, 35.516
57.159, 75.434
57.176, 105.363
57.193, 78.305
57.210, 62.257
57.227, 57.210
57.244, 61.162
57.261, 31.115
57.278, 47.073
57.295, 79.032
57.312, 81.991
57.329, 64.949
57.346, 83.907
57.363, 102.865
57.380, 94.822
57.397, 63.780
57.414, 66.737
57.431, 107.830
57.448, 115.786
57.465, 119.742
57.482, 140.697
57.499, 132.652
57.516, 152.607
57.533, 147.564
57.550, 157.520
57.567, 173.475
57.584, 185.430
57.601, 186.385
57.618, 177.341
57.635, 224.297
57.652, 222.252
57.669, 209.213
57.686, 216.177
57.703, 235.141
57.720, 216.104
57.737, 243.067
57.754, 194.030
57.771, 205.992
57.788, 258.954
57.805, 247.915
57.822, 265.876
57.839, 225.837
57.856, 205.797
57.873, 244.757
57.890, 300.717
57.907, 234.676
57.924, 222.634
57.941, 194.593
57.958, 175.550
57.975, 154.508
57.992, 214.465
58.009, 184.422
58.026, 175.378
58.043, 204.334
58.060, 166.290
58.077, 218.245
58.094, 159.200
58.111, 142.155
58.128, 130.109
58.145, 116.037
58.162, 134.834
58.179, 139.880
58.196, 153.737
58.213, 116.694
58.230, 158.349
58.247, 154.377
58.264, 116.334
58.281, 94.290
58.298, 135.012
58.315, 141.968
58.332, 172.924
58.349, 189.891
58.366, 177.679
58.383, 164.635
58.400, 181.591
58.417, 207.547
58.434, 223.147
58.451, 247.372
58.468, 241.328
58.485, 221.179
58.502, 232.776
58.519, 187.932
58.536, 193.842
58.553, 224.797
58.570, 221.754
58.587, 261.028
58.604, 246.429
58.621, 185.828
58.638, 215.788
58.655, 220.748
58.672, 217.710
58.689, 228.672
58.706, 224.921
58.723, 194.887
58.740, 149.854
58.757, 163.821
58.774, 178.790
58.791, 201.759
58.808, 203.729
58.825, 189.700
58.842, 216.675
58.859, 290.658
58.876, 174.646
58.893, 182.635
58.910, 196.624
58.927, 106.617
58.944, 128.610
58.961, 214.604
58.978, 194.599
58.995, 199.688
59.012, 131.336
59.029, 122.733
59.046, 137.731
59.063, 187.729
59.080, 142.113
59.097, 131.113
59.114, 181.114
59.131, 147.866
59.148, 95.741
59.165, 133.743
59.182, 113.774
59.199, 59.524
59.216, 64.710
59.233, 83.829
59.250, 95.069
59.267, 82.074
59.284, 56.079
59.301, 42.629
59.318, 20.634
59.335, 4.638
59.352, 15.643
59.369, 21.648
59.386, 28.653
59.403, 3.658
59.420, 29.663
59.437, 7.668
59.454, 19.326
59.471, 15.669
59.488, 47.664
59.505, 28.659
59.522, 39.654
59.539, 25.650
59.556, 18.084
59.573, 9.079
59.590, 8.075
59.607, 61.071
59.624, 80.067
59.641, 55.374
59.658, 65.370
59.675, 55.366
59.692, 31.796
59.709, 25.597
59.726, 49.593
59.743, 83.589
59.760, 136.585
59.777, 141.581
59.794, 163.577
59.811, 159.573
59.828, 180.569
59.845, 199.564
59.862, 135.560
59.879, 145.556
59.896, 131.552
59.913, 121.548
59.930, 151.544
59.947, 177.540
59.964, 116.536
59.981, 203.533
59.998, 176.529
60.015, 129.525
60.032, 103.521
60.049, 161.518
60.066, 159.514
60.083, 141.511
60.100, 94.508
60.117, 89.505
60.134, 84.502
60.151, 129.499
60.168, 73.496
60.185, 157.494
60.202, 151.492
60.219, 156.496
60.236, 166.500
60.253, 151.504
60.270, 126.510
60.287, 165.521
60.304, 124.531
60.321, 145.542
60.338, 131.555
60.355, 194.567
60.372, 121.580
60.389, 120.602
60.406, 148.625
60.423, 181.648
60.440, 183.672
60.457, 140.696
60.474, 149.722
60.491, 180.751
60.508, 169.781
60.525, 141.812
60.542, 148.849
60.559, 162.894
60.576, 154.945
60.593, 134.995
60.610, 119.046
60.627, 143.109
60.644, 147.180
60.661, 120.257
60.678, 84.335
60.695, 54.413
60.712, 74.492
60.729, 52.571
60.746, 28.654
60.763, 76.738
60.780, 82.822
60.797, 52.907
60.814, 57.992
60.831, 18.077
60.848, 18.164
60.865, 47.250
60.882, 12.338
60.899, 13.426
60.916, 32.514
60.933, 28.603
60.950, 13.692
60.967, 29.782
60.984, 14.872
61.001, 8.962
61.018, 16.946
61.035, 9.865
61.052, 21.788
61.069, 4.276
61.086, 12.347
61.103, 5.588
61.120, 9.474
61.137, 25.537
61.154, 11.400
61.171, 13.344
61.188, 8.706
61.205, 0.755
61.222, 43.195
61.239, 50.169
61.256, 33.169
61.273, 3.187
61.290, 10.793
61.307, 52.773
61.324, 24.246
61.341, 4.722
61.358, 18.690
61.375, 46.659
61.392, 17.629
61.409, 54.599
61.426, 50.570
61.443, 48.541
61.460, 7.513
61.477, 39.486
61.494, 16.323
61.511, 15.297
61.528, 1.271
61.545, 46.247
61.562, 52.223
61.579, 7.801
61.596, 30.172
61.613, 10.146
61.630, 28.121
61.647, 25.096
61.664, 5.928
61.681, 40.046
61.698, 36.020
61.715, 24.005
61.732, 14.042
61.749, 17.915
61.766, 46.873
61.783, 55.831
61.800, 42.790
61.817, 58.750
61.834, 94.714
61.851, 89.680
61.868, 82.647
61.885, 103.614
61.902, 126.582
61.919, 136.551
61.936, 136.520
61.953, 130.491
61.970, 169.462
61.987, 187.434
62.004, 221.407
62.021, 239.381
62.038, 206.356
62.055, 193.331
62.072, 227.307
62.089, 233.285
62.106, 240.263
62.123, 196.241
62.140, 235.221
62.157, 279.202
62.174, 266.191
62.191, 244.190
62.208, 240.195
62.225, 227.200
62.242, 280.207
62.259, 273.214
62.276, 271.222
62.293, 296.231
62.310, 284.240
62.327, 256.251
62.344, 232.263
62.361, 257.276
62.378, 232.290
62.395, 201.304
62.412, 168.319
62.429, 210.335
62.446, 234.352
62.463, 249.369
62.480, 164.387
62.497, 155.407
62.514, 178.427
62.531, 168.448
62.548, 169.470
62.565, 142.492
62.582, 161.525
62.599, 136.566
62.616, 129.610
62.633, 112.655
62.650, 91.701
62.667, 79.748
62.684, 67.805
62.701, 87.862
62.718, 103.919
62.735, 102.983
62.752, 90.067
62.769, 70.154
62.786, 57.242
62.803, 35.331
62.820, 54.420
62.837, 79.511
62.854, 60.603
62.871, 34.695
62.888, 35.788
62.905, 19.883
62.922, 33.980
62.939, 58.076
62.956, 30.174
62.973, 7.271
62.990, 32.373
63.007, 8.474
63.024, 3.577
63.041, 32.679
63.058, 46.688
63.075, 49.142
63.092, 24.849
63.109, 0.042
63.126, 14.068
63.143, 76.794
63.160, 64.904
63.177, 31.016
63.194, 26.377
63.211, 23.617
63.228, 77.730
63.245, 26.816
63.262, 13.186
63.279, 47.120
63.296, 18.125
63.313, 70.008
63.330, 57.128
63.347, 72.250
63.364, 52.831
63.381, 44.961
63.398, 3.094
63.415, 122.228
63.432, 102.363
63.449, 32.499
63.466, 72.638
63.483, 36.784
63.500, 72.930
63.517, 111.077
63.534, 133.231
63.551, 118.386
63.568, 126.541
63.585, 146.698
63.602, 143.855
63.619, 140.575
63.636, 137.735
63.653, 115.895
63.670, 160.057
63.687, 162.219
63.704, 106.070
63.721, 129.235
63.738, 126.400
63.755, 116.132
63.772, 146.494
63.789, 121.662
63.806, 140.831
63.823, 164.001
63.840, 192.172
63.857, 161.289
63.874, 178.462
63.891, 183.636
63.908, 161.811
63.925, 152.986
63.942, 129.162
63.959, 95.340
63.976, 86.518
63.993, 96.696
64.010, 148.876
64.027, 152.057
64.044, 146.238
64.061, 112.420
64.078, 125.602
64.095, 168.786
64.112, 137.970
64.129, 133.154
64.146, 143.340
64.163, 179.526
64.180, 176.713
64.197, 186.763
64.214, 177.999
64.231, 184.167
64.248, 156.388
64.265, 194.577
64.282, 180.773
64.299, 188.965
64.316, 183.155
64.333, 156.351
64.350, 170.653
64.367, 175.843
64.384, 159.034
64.401, 150.225
64.418, 188.416
64.435, 210.607
64.452, 158.798
64.469, 144.989
64.486, 165.180
64.503, 159.372
64.520, 195.678
64.537, 158.870
64.554, 221.061
64.571, 147.253
64.588, 161.445
64.605, 250.685
64.622, 199.864
64.639, 180.602
64.656, 238.793
64.673, 265.067
64.690, 293.264
64.707, 261.584
64.724, 235.773
64.741, 260.962
64.758, 257.416
64.775, 282.326
64.792, 210.163
64.809, 246.349
64.826, 295.534
64.843, 290.721
64.860, 248.269
64.877, 265.452
64.894, 251.633
64.911, 219.850
64.928, 219.615
64.945, 261.793
64.962, 283.969
64.979, 240.145
64.996, 212.320
65.013, 238.248
65.030, 233.420
65.047, 245.591
65.064, 238.760
65.081, 210.929
65.098, 163.315
65.115, 150.862
65.132, 179.487
65.149, 194.659
65.166, 179.835
65.183, 169.011
65.200, 151.186
65.217, 149.381
65.234, 111.559
65.251, 99.739
65.268, 132.918
65.285, 113.257
65.302, 87.746
65.319, 140.946
65.336, 126.154
65.353, 120.361
65.370, 109.567
65.387, 76.569
65.404, 94.463
65.421, 104.935
65.438, 127.141
65.455, 85.347
65.472, 74.550
65.489, 97.251
65.506, 101.592
65.523, 114.790
65.540, 139.986
65.557, 108.180
65.574, 111.371
65.591, 92.561
65.608, 90.749
65.625, 117.935
65.642, 112.119
65.659, 72.303
65.676, 49.484
65.693, 113.664
65.710, 55.842
65.727, 92.017
65.744, 60.192
65.761, 87.365
65.778, 55.535
65.795, 44.710
65.812, 33.886
65.829, 20.060
65.846, 34.232
65.863, 29.401
65.880, 10.432
65.897, 43.725
65.914, 52.879
65.931, 68.031
65.948, 42.181
65.965, 27.328
65.982, 22.474
65.999, 50.616
66.016, 29.757
66.033, 66.895
66.050, 46.031
66.067, 29.165
66.084, 36.296
66.101, 24.425
66.118, 31.552
66.135, 28.676
66.152, 20.798
66.169, 23.917
66.186, 52.035
66.203, 32.149
66.220, 23.738
66.237, 26.644
66.254, 9.571
66.271, 13.492
66.288, 32.552
66.305, 17.609
66.322, 18.664
66.339, 24.717
66.356, 17.767
66.373, 7.814
66.390, 25.858
66.407, 35.899
66.424, 58.938
66.441, 49.974
66.458, 35.008
66.475, 25.039
66.492, 57.068
66.509, 67.095
66.526, 31.118
66.543, 8.140
66.560, 37.157
66.577, 36.172
66.594, 35.185
66.611, 56.195
66.628, 25.797
66.645, 24.810
66.662, 1.843
66.679, 44.117
66.696, 10.075
66.713, 18.029
66.730, 27.020
66.747, 39.911
66.764, 21.839
66.781, 13.235
66.798, 68.324
66.815, 3.454
66.832, 69.407
66.849, 71.265
66.866, 18.121
66.883, 0.974
66.900, 50.821
66.917, 91.666
66.934, 12.508
66.951, 2.652
66.968, 19.179
66.985, 58.008
67.002, 35.835
67.019, 44.659
67.036, 5.520
67.053, 23.293
67.070, 44.103
67.087, 61.910
67.104, 21.716
67.121, 3.518
67.138, 0.317
67.155, 0.891
67.172, 20.894
67.189, 46.678
67.206, 25.459
67.223, 17.237
67.240, 12.487
67.257, 32.260
67.274, 37.031
67.291, 35.800
67.308, 4.566
67.325, 1.328
67.342, 27.085
67.359, 18.839
67.376, 26.591
67.393, 33.394
67.410, 6.859
67.427, 4.957
67.444, 1.772
67.461, 25.495
67.478, 49.216
67.495, 31.936
67.512, 2.346
67.529, 12.636
67.546, 20.063
67.563, 15.758
67.580, 22.452
67.597, 73.143
67.614, 89.832
67.631, 62.518
67.648, 114.202
67.665, 94.884
67.682, 72.564
67.699, 50.241
67.716, 67.916
67.733, 67.589
67.750, 64.260
67.767, 71.928
67.784, 64.595
67.801, 65.259
67.818, 97.922
67.835, 90.582
67.852, 78.241
67.869, 97.897
67.886, 71.551
67.903, 83.203
67.920, 85.910
67.937, 44.561
67.954, 48.213
67.971, 46.863
67.988, 79.511
68.005, 58.161
68.022, 71.809
68.039, 103.456
68.056, 69.100
68.073, 66.746
68.090, 68.396
68.107, 105.044
68.124, 69.691
68.141, 66.336
68.158, 84.979
68.175, 61.621
68.192, 84.261
68.209, 95.899
68.226, 116.536
68.243, 102.171
68.260, 71.942
68.277, 69.525
68.294, 58.176
68.311, 68.773
68.328, 72.402
68.345, 103.022
68.362, 101.646
68.379, 79.271
68.396, 51.888
68.413, 66.399
68.430, 98.021
68.447, 114.642
68.464, 110.261
68.481, 84.880
68.498, 93.498
68.515, 134.115
68.532, 135.731
68.549, 124.346
68.566, 154.960
68.583, 135.459
68.600, 125.072
68.617, 104.684
68.634, 122.296
68.651, 135.907
68.668, 107.470
68.685, 139.092
68.702, 135.155
68.719, 118.765
68.736, 116.292
68.753, 127.895
68.770, 92.374
68.787, 113.984
68.804, 79.594
68.821, 26.938
68.838, 36.826
68.855, 109.787
68.872, 55.398
68.889, 87.010
68.906, 31.619
68.923, 67.866
68.940, 48.480
68.957, 79.095
68.974, 61.672
68.991, 48.703
69.008, 38.319
69.025, 36.937
69.042, 53.556
69.059, 58.175
69.076, 37.040
69.093, 66.662
69.110, 44.284
69.127, 50.907
69.144, 38.532
69.161, 14.944
69.178, 3.197
69.195, 20.378
69.212, 31.007
69.229, 37.638
69.246, 47.269
69.263, 16.098
69.280, 70.513
69.297, 54.144
69.314, 69.777
69.331, 46.411
69.348, 67.885
69.365, 59.221
69.382, 60.860
69.399, 14.500
69.416, 3.859
69.433, 8.784
69.450, 8.370
69.467, 11.591
69.484, 28.974
69.501, 49.622
69.518, 25.692
69.535, 49.343
69.552, 71.497
69.569, 23.011
69.586, 30.668
69.603, 65.327
69.620, 51.989
69.637, 41.652
69.654, 71.318
69.671, 54.985
69.688, 63.655
69.705, 50.327
69.722, 18.001
69.739, 40.678
69.756, 69.356
69.773, 61.037
69.790, 62.720
69.807, 56.406
69.824, 39.200
69.841, 58.890
69.858, 98.583
69.875, 104.278
69.892, 71.975
69.909, 75.675
69.926, 87.385
69.943, 49.486
69.960, 82.502
69.977, 70.728
69.994, 98.473
70.011, 122.192
70.028, 75.734
70.045, 78.581
70.062, 52.307
70.079, 51.036
70.096, 73.312
70.113, 73.509
70.130, 83.280
70.147, 86.019
70.164, 76.761
70.181, 102.506
70.198, 95.253
70.215, 83.002
70.232, 98.755
70.249, 87.510
70.266, 70.267
70.283, 49.031
70.300, 100.806
70.317, 37.592
70.334, 69.385
70.351, 97.182
70.368, 87.981
70.385, 91.782
70.402, 79.587
70.419, 54.395
70.436, 49.206
70.453, 8.020
70.470, 51.837
70.487, 58.656
70.504, 86.479
70.521, 70.305
70.538, 65.136
70.555, 29.972
70.572, 8.819
70.589, 41.669
70.606, 55.532
70.623, 29.398
70.640, 41.281
70.657, 89.167
70.674, 78.059
70.691, 71.957
70.708, 40.871
70.725, 35.799
70.742, 89.733
70.759, 95.670
70.776, 65.611
70.793, 64.554
70.810, 47.510
70.827, 28.469
70.844, 43.432
70.861, 14.403
70.878, 2.397
70.895, 14.397
70.912, 51.400
70.929, 71.407
70.946, 83.416
70.963, 58.431
70.980, 71.449
70.997, 49.470
71.014, 36.494
71.031, 44.524
71.048, 12.557
71.065, 69.594
71.082, 48.633
71.099, 14.676
71.116, 70.725
71.133, 78.778
71.150, 97.834
71.167, 107.892
71.184, 74.954
71.201, 140.020
71.218, 91.092
71.235, 76.168
71.252, 98.248
71.269, 118.330
71.286, 115.416
71.303, 90.031
71.320, 27.124
71.337, 25.219
71.354, 88.318
71.371, 56.420
71.388, 29.526
71.405, 45.636
71.422, 68.750
71.439, 43.866
71.456, 31.932
71.473, 7.055
71.490, 42.020
71.507, 35.156
71.524, 9.296
71.541, 13.560
71.558, 12.583
71.575, 33.729
71.592, 50.881
71.609, 55.041
71.626, 46.204
71.643, 27.370
71.660, 39.539
71.677, 53.711
71.694, 39.887
71.711, 4.065
71.728, 3.247
71.745, 38.432
71.762, 29.620
71.779, 14.811
71.796, 13.005
71.813, 10.202
71.830, 17.403
71.847, 4.394
71.864, 7.811
71.881, 28.020
71.898, 27.231
71.915, 3.448
71.932, 12.668
71.949, 0.109
71.966, 11.883
71.983, 9.656
72.000, 14.429
72.017, 1.204
72.034, 8.025
72.051, 20.744
72.068, 4.516
72.085, 64.713
72.102, 21.950
72.119, 14.808
72.136, 32.568
72.153, 1.338
72.170, 31.894
72.187, 26.130
72.204, 34.370
72.221, 18.613
72.238, 30.858
72.255, 52.107
72.272, 22.358
72.289, 32.612
72.306, 110.657
72.323, 77.917
72.340, 72.179
72.357, 19.443
72.374, 111.711
72.391, 136.980
72.408, 76.253
72.425, 108.528
72.442, 40.825
72.459, 73.105
72.476, 54.388
72.493, 91.673
72.510, 68.960
72.527, 71.250
72.544, 84.542
72.561, 85.460
72.578, 110.937
72.595, 108.328
72.612, 47.629
72.629, 64.113
72.646, 73.419
72.663, 109.875
72.680, 92.185
72.697, 88.226
72.714, 97.316
72.731, 102.202
72.748, 68.326
72.765, 54.644
72.782, 76.963
72.799, 33.284
72.816, 36.606
72.833, 58.930
72.850, 104.255
72.867, 81.582
72.884, 73.910
72.901, 55.239
72.918, 57.569
72.935, 64.901
72.952, 48.234
72.969, 24.568
72.986, 29.903
73.003, 43.239
73.020, 64.576
73.037, 97.914
73.054, 77.253
73.071, 82.594
73.088, 82.935
73.105, 69.278
73.122, 50.621
73.139, 49.966
73.156, 40.311
73.173, 56.658
73.190, 51.005
73.207, 57.353
73.224, 64.702
73.241, 54.052
73.258, 48.403
73.275, 91.755
73.292, 120.107
73.309, 84.461
73.326, 120.815
73.343, 138.172
73.360, 70.529
73.377, 90.888
73.394, 106.247
73.411, 154.607
73.428, 116.967
73.445, 133.328
73.462, 85.690
73.479, 125.052
73.496, 85.416
73.513, 97.780
73.530, 139.147
73.547, 73.515
73.564, 64.886
73.581, 84.837
73.598, 91.208
73.615, 45.580
73.632, 123.952
73.649, 138.325
73.666, 64.698
73.683, 40.071
73.700, 65.445
73.717, 94.819
73.734, 66.204
73.751, 122.590
73.768, 74.976
73.785, 63.363
73.802, 70.749
73.819, 55.136
73.836, 86.522
73.853, 89.909
73.870, 65.296
73.887, 43.577
73.904, 23.964
73.921, 20.351
73.938, 43.296
73.955, 77.683
73.972, 67.071
73.989, 47.451
74.006, 73.720
74.023, 81.806
74.040, 73.731
74.057, 38.299
74.074, 70.690
74.091, 91.261
74.108, 67.529
74.125, 80.107
74.142, 58.919
74.159, 36.765
74.176, 66.693
74.193, 78.049
74.210, 66.525
74.227, 50.192
74.244, 59.582
74.261, 61.971
74.278, 76.361
74.295, 39.750
74.312, 48.138
74.329, 9.473
74.346, 26.908
74.363, 45.289
74.380, 44.669
74.397, 58.049
74.414, 38.429
74.431, 63.808
74.448, 38.187
74.465, 5.565
74.482, 52.943
74.499, 36.321
74.516, 64.698
74.533, 41.074
74.550, 50.451
74.567, 47.826
74.584, 5.799
74.601, 1.570
74.618, 29.064
74.635, 25.284
74.652, 30.369
74.669, 14.958
74.686, 45.715
74.703, 39.585
74.720, 7.116
74.737, 7.824
74.754, 4.540
74.771, 8.262
74.788, 20.008
74.805, 42.277
74.822, 26.549
74.839, 18.820
74.856, 92.090
74.873, 29.360
74.890, 29.628
74.907, 54.896
74.924, 48.163
74.941, 84.430
74.958, 32.695
74.975, 39.960
74.992, 19.224
75.009, 41.487
75.026, 90.749
75.043, 80.011
75.060, 103.271
75.077, 85.537
75.094, 79.809
75.111, 99.080
75.128, 82.350
75.145, 116.618
75.162, 139.886
75.179, 102.154
75.196, 84.420
75.213, 90.687
75.230, 112.954
75.247, 124.220
75.264, 107.484
75.281, 85.748
75.298, 113.011
75.315, 133.273
75.332, 135.534
75.349, 117.793
75.366, 141.052
75.383, 136.310
75.400, 115.567
75.417, 87.822
75.434, 96.077
75.451, 163.331
75.468, 153.583
75.485, 137.834
75.502, 152.085
75.519, 200.334
75.536, 200.618
75.553, 163.368
75.570, 121.613
75.587, 142.284
75.604, 116.527
75.621, 133.771
75.638, 146.014
75.655, 59.256
75.672, 95.497
75.689, 132.736
75.706, 152.986
75.723, 128.223
75.740, 69.459
75.757, 126.375
75.774, 85.608
75.791, 83.839
75.808, 111.069
75.825, 59.298
75.842, 127.525
75.859, 69.751
75.876, 49.975
75.893, 62.198
75.910, 67.420
75.927, 57.640
75.944, 51.862
75.961, 1.917
75.978, 75.321
75.995, 64.641
76.012, 83.852
76.029, 3.061
76.046, 17.938
76.063, 12.145
76.080, 5.453
76.097, 40.736
76.114, 58.939
76.131, 42.143
76.148, 11.653
76.165, 0.538
76.182, 39.724
76.199, 69.911
76.216, 44.109
76.233, 10.304
76.250, 3.498
76.267, 26.687
76.284, 37.874
76.301, 52.060
76.318, 42.245
76.335, 44.427
76.352, 49.609
76.369, 42.999
76.386, 21.180
76.403, 36.364
76.420, 85.546
76.437, 77.728
76.454, 72.908
76.471, 58.086
76.488, 65.326
76.505, 59.481
76.522, 58.654
76.539, 39.826
76.556, 106.997
76.573, 109.166
76.590, 101.333
76.607, 158.499
76.624, 148.040
76.641, 116.023
76.658, 100.093
76.675, 86.253
76.692, 99.231
76.709, 140.389
76.726, 165.396
76.743, 151.552
76.760, 119.975
76.777, 147.352
76.794, 100.932
76.811, 164.277
76.828, 181.428
76.845, 171.264
76.862, 196.413
76.879, 211.561
76.896, 148.708
76.913, 194.855
76.930, 192.000
76.947, 176.145
76.964, 177.288
76.981, 161.433
76.998, 160.577
77.015, 151.719
77.032, 167.861
77.049, 207.002
77.066, 116.142
77.083, 165.282
77.100, 190.973
77.117, 183.535
77.134, 145.672
77.151, 195.807
77.168, 197.942
77.185, 141.075
77.202, 174.207
77.219, 132.338
77.236, 108.997
77.253, 123.126
77.270, 118.253
77.287, 93.380
77.304, 99.506
77.321, 98.631
77.338, 95.755
77.355, 110.878
77.372, 124.000
77.389, 122.121
77.406, 129.240
77.423, 67.359
77.440, 51.477
77.457, 57.593
77.474, 48.708
77.491, 53.823
77.508, 48.936
77.525, 31.048
77.542, 44.159
77.559, 7.269
77.576, 4.622
77.593, 23.481
77.610, 3.417
77.627, 38.679
77.644, 59.775
77.661, 23.870
77.678, 37.963
77.695, 32.056
77.712, 25.147
77.729, 9.238
77.746, 16.327
77.763, 16.415
77.780, 39.498
77.797, 16.565
77.814, 22.628
77.831, 71.689
77.848, 47.749
77.865, 17.808
77.882, 51.866
77.899, 33.923
77.916, 13.980
77.933, 61.035
77.950, 67.089
77.967, 64.734
77.984, 63.786
78.001, 7.279
78.018, 2.329
78.035, 54.377
78.052, 41.424
78.069, 7.808
78.086, 14.231
78.103, 2.223
78.120, 3.054
78.137, 33.088
78.154, 25.122
78.171, 85.154
78.188, 81.999
78.205, 35.609
78.222, 14.638
78.239, 38.913
78.256, 61.941
78.273, 45.883
78.290, 29.632
78.307, 45.657
78.324, 48.682
78.341, 60.706
78.358, 40.728
78.375, 25.750
78.392, 46.772
78.409, 51.403
78.426, 69.534
78.443, 59.557
78.460, 21.744
78.477, 43.764
78.494, 29.783
78.511, 3.802
78.528, 17.819
78.545, 48.836
78.562, 47.852
78.579, 56.867
78.596, 79.881
78.613, 94.905
78.630, 77.929
78.647, 14.952
78.664, 26.976
78.681, 53.010
78.698, 29.053
78.715, 47.094
78.732, 80.145
78.749, 62.194
78.766, 71.256
78.783, 68.317
78.800, 61.381
78.817, 28.447
78.834, 22.644
78.851, 44.715
78.868, 8.214
78.885, 24.849
78.902, 28.912
78.919, 33.974
78.936, 88.035
78.953, 80.095
78.970, 67.155
78.987, 62.213
79.004, 40.671
79.021, 33.728
79.038, 19.785
79.055, 18.840
79.072, 49.895
79.089, 33.950
79.106, 12.090
79.123, 21.857
79.140, 19.818
79.157, 68.208
79.174, 14.233
79.191, 31.257
79.208, 20.281
79.225, 22.304
79.242, 16.327
79.259, 5.650
79.276, 34.368
79.293, 57.384
79.310, 21.401
79.327, 12.416
79.344, 56.569
79.361, 46.585
79.378, 33.601
79.395, 13.616
79.412, 55.631
79.429, 68.645
79.446, 27.659
79.463, 40.671
79.480, 45.683
79.497, 23.695
79.514, 19.706
79.531, 10.716
79.548, 55.726
79.565, 64.735
79.582, 50.743
79.599, 30.716
79.616, 6.220
79.633, 29.227
79.650, 61.808
79.667, 52.813
79.684, 52.819
79.701, 30.824
79.718, 55.828
79.735, 48.832
79.752, 24.836
79.769, 14.827
79.786, 14.829
79.803, 23.831
79.820, 86.151
79.837, 90.153
79.854, 25.154
79.871, 6.155
79.888, 35.156
79.905, 47.156
79.922, 38.157
79.939, 38.157
79.956, 39.157
79.973, 56.156
79.990, 8.844
80.007, 57.150
80.024, 71.143
80.041, 54.114
80.058, 47.003
80.075, 91.999
80.092, 97.995
80.109, 51.322
80.126, 27.319
80.143, 11.215
80.160, 35.133
80.177, 42.131
80.194, 68.129
80.211, 69.126
80.228, 42.129
80.245, 6.134
80.262, 19.861
80.279, 13.133
80.296, 61.127
80.313, 49.122
80.330, 49.118
80.347, 42.114
80.364, 2.109
80.381, 47.105
80.398, 18.102
80.415, 42.098
80.432, 9.906
80.449, 17.915
80.466, 23.066
80.483, 2.953
80.500, 31.027
80.517, 9.007
80.534, 0.987
80.551, 18.992
80.568, 16.973
80.585, 8.954
80.602, 4.935
80.619, 34.916
80.636, 43.514
80.653, 27.496
80.670, 36.478
80.687, 24.460
80.704, 5.600
80.721, 16.594
80.738, 59.576
80.755, 79.558
80.772, 51.541
80.789, 29.523
80.806, 37.505
80.823, 46.488
80.840, 7.470
80.857, 0.548
80.874, 38.433
80.891, 54.414
80.908, 31.710
80.925, 20.690
80.942, 34.671
80.959, 21.652
80.976, 26.633
80.993, 22.614
81.010, 16.594
81.027, 5.424
81.044, 41.553
81.061, 37.530
81.078, 40.508
81.095, 16.486
81.112, 18.463
81.129, 0.559
81.146, 71.418
81.163, 83.842
81.180, 57.395
81.197, 49.373
81.214, 56.393
81.231, 63.373
81.248, 54.352
81.265, 3.588
81.282, 47.568
81.299, 75.019
81.316, 56.000
81.333, 82.980
81.350, 99.961
81.367, 2.475
81.384, 95.505
81.401, 125.486
81.418, 113.468
81.435, 135.450
81.452, 122.432
81.469, 140.415
81.486, 201.398
81.503, 238.382
81.520, 119.366
81.537, 123.350
81.554, 103.336
81.571, 83.321
81.588, 159.307
81.605, 106.294
81.622, 120.281
81.639, 114.269
81.656, 64.260
81.673, 68.252
81.690, 95.245
81.707, 94.240
81.724, 139.235
81.741, 160.231
81.758, 138.227
81.775, 87.224
81.792, 102.221
81.809, 97.220
81.826, 79.218
81.843, 65.218
81.860, 65.229
81.877, 42.241
81.894, 54.254
81.911, 67.268
81.928, 44.282
81.945, 62.297
81.962, 92.312
81.979, 119.328
81.996, 137.345
82.013, 94.363
82.030, 66.789
82.047, 84.808
82.064, 96.828
82.081, 72.849
82.098, 47.871
82.115, 50.894
82.132, 54.917
82.149, 60.944
82.166, 39.972
82.183, 99.002
82.200, 113.032
82.217, 107.063
82.234, 82.096
82.251, 49.128
82.268, 72.162
82.285, 77.199
82.302, 40.992
82.319, 36.031
82.336, 35.070
82.353, 83.111
82.370, 17.153
82.387, 103.195
82.404, 52.238
82.421, 98.282
82.438, 85.327
82.455, 93.373
82.472, 72.816
82.489, 63.760
82.506, 60.814
82.523, 31.708
82.540, 63.777
82.557, 40.847
82.574, 3.082
82.591, 74.990
82.608, 76.070
82.625, 54.150
82.642, 29.232
82.659, 45.686
82.676, 7.376
82.693, 12.443
82.710, 11.510
82.727, 38.419
82.744, 0.367
82.761, 37.687
82.778, 27.741
82.795, 38.797
82.812, 42.854
82.829, 14.912
82.846, 17.972
82.863, 43.032
82.880, 43.094
82.897, 36.027
82.914, 5.091
82.931, 24.156
82.948, 35.227
82.965, 22.300
82.982, 32.375
82.999, 44.450
83.016, 70.526
83.033, 42.604
83.050, 53.682
83.067, 85.363
83.084, 53.443
83.101, 37.525
83.118, 7.609
83.135, 13.693
83.152, 23.778
83.169, 41.778
83.186, 29.866
83.203, 36.961
83.220, 35.064
83.237, 1.831
83.254, 0.274
83.271, 2.383
83.288, 7.506
83.305, 17.604
83.322, 46.715
83.339, 35.829
83.356, 33.945
83.373, 7.062
83.390, 13.820
83.407, 13.159
83.424, 20.274
83.441, 18.390
83.458, 12.508
83.475, 14.626
83.492, 24.746
83.509, 36.868
83.526, 52.990
83.543, 62.114
83.560, 32.238
83.577, 27.364
83.594, 67.492
83.611, 23.620
83.628, 57.750
83.645, 51.881
83.662, 51.013
83.679, 61.146
83.696, 38.280
83.713, 72.416
83.730, 91.553
83.747, 129.690
83.764, 129.830
83.781, 116.970
83.798, 117.111
83.815, 86.254
83.832, 68.398
83.849, 87.543
83.866, 71.689
83.883, 93.836
83.900, 69.985
83.917, 95.134
83.934, 61.285
83.951, 46.437
83.968, 109.590
83.985, 102.744
84.002, 69.899
84.019, 47.055
84.036, 28.213
84.053, 84.371
84.070, 73.534
84.087, 36.697
84.104, 71.862
84.121, 72.027
84.138, 95.194
84.155, 81.362
84.172, 70.531
84.189, 97.701
84.206, 84.872
84.223, 48.044
84.240, 45.218
84.257, 64.392
84.274, 102.567
84.291, 90.748
84.308, 65.577
84.325, 71.755
84.342, 86.940
84.359, 107.125
84.376, 108.312
84.393, 101.499
84.410, 90.687
84.427, 120.876
84.444, 84.066
84.461, 66.257
84.478, 97.448
84.495, 107.346
84.512, 58.985
84.529, 89.187
84.546, 54.688
84.563, 89.618
84.580, 120.828
84.597, 88.033
84.614, 42.400
84.631, 101.036
84.648, 37.243
84.665, 79.451
84.682, 27.660
84.699, 58.253
84.716, 38.518
84.733, 42.729
84.750, 60.148
84.767, 77.204
84.784, 61.407
84.801, 55.622
84.818, 64.936
84.835, 1.153
84.852, 13.370
84.869, 45.588
84.886, 34.807
84.903, 72.026
84.920, 76.247
84.937, 70.468
84.954, 29.691
84.971, 25.598
84.988, 87.822
85.005, 92.046
85.022, 81.271
85.039, 64.496
85.056, 53.722
85.073, 68.948
85.090, 74.175
85.107, 80.405
85.124, 52.635
85.141, 58.865
85.158, 67.097
85.175, 75.328
85.192, 103.562
85.209, 61.796
85.226, 35.031
85.243, 57.267
85.260, 89.503
85.277, 55.714
85.294, 55.800
85.311, 85.041
85.328, 68.021
85.345, 49.259
85.362, 86.497
85.379, 96.736
85.396, 62.975
85.413, 52.214
85.430, 70.872
85.447, 61.113
85.464, 37.354
85.481, 55.596
85.498, 98.838
85.515, 66.080
85.532, 57.322
85.549, 62.565
85.566, 61.808
85.583, 51.052
85.600, 31.295
85.617, 88.539
85.634, 77.784
85.651, 60.028
85.668, 92.273
85.685, 72.518
85.702, 31.763
85.719, 65.008
85.736, 69.261
85.753, 88.507
85.770, 48.753
85.787, 104.000
85.804, 61.246
85.821, 44.493
85.838, 47.740
85.855, 46.989
85.872, 110.238
85.889, 67.487
85.906, 50.737
85.923, 35.986
85.940, 49.235
85.957, 15.485
85.974, 59.735
85.991, 56.986
86.008, 35.238
86.025, 64.490
86.042, 37.743
86.059, 52.996
86.076, 47.250
86.093, 71.505
86.110, 22.761
86.127, 47.017
86.144, 48.290
86.161, 34.544
86.178, 30.799
86.195, 63.054
86.212, 51.310
86.229, 46.566
86.246, 21.817
86.263, 9.062
86.280, 49.325
86.297, 38.560
86.314, 2.789
86.331, 8.982
86.348, 34.238
86.365, 42.496
86.382, 5.715
86.399, 40.934
86.416, 29.152
86.433, 16.370
86.450, 6.618
86.467, 16.836
86.484, 36.051
86.501, 33.266
86.518, 9.520
86.535, 5.308
86.552, 9.901
86.569, 18.889
86.586, 25.685
86.603, 4.550
86.620, 27.746
86.637, 2.064
86.654, 20.874
86.671, 27.309
86.688, 25.491
86.705, 14.872
86.722, 16.054
86.739, 14.753
86.756, 10.436
86.773, 1.085
86.790, 25.102
86.807, 29.298
86.824, 42.543
86.841, 0.738
86.858, 56.963
86.875, 53.157
86.892, 17.376
86.909, 41.569
86.926, 60.762
86.943, 61.954
86.960, 35.146
86.977, 33.378
86.994, 8.432
87.011, 31.756
87.028, 27.942
87.045, 75.128
87.062, 26.313
87.079, 31.497
87.096, 32.681
87.113, 22.864
87.130, 41.046
87.147, 59.227
87.164, 23.409
87.181, 22.590
87.198, 80.771
87.215, 50.273
87.232, 62.453
87.249, 64.633
87.266, 34.813
87.283, 31.993
87.300, 6.173
87.317, 10.648
87.334, 9.529
87.351, 11.702
87.368, 25.876
87.385, 12.046
87.402, 29.215
87.419, 34.384
87.436, 38.552
87.453, 57.719
87.470, 50.916
87.487, 36.085
87.504, 20.255
87.521, 25.424
87.538, 48.594
87.555, 45.763
87.572, 14.933
87.589, 31.103
87.606, 40.265
87.623, 45.427
87.640, 42.589
87.657, 37.751
87.674, 50.912
87.691, 68.074
87.708, 62.236
87.725, 34.397
87.742, 34.559
87.759, 10.721
87.776, 91.883
87.793, 75.046
87.810, 75.210
87.827, 36.376
87.844, 54.543
87.861, 99.784
87.878, 109.211
87.895, 88.395
87.912, 64.576
87.929, 85.697
87.946, 119.824
87.963, 92.824
87.980, 48.107
87.997, 43.389
88.014, 58.672
88.031, 46.955
88.048, 47.238
88.065, 25.521
88.082, 98.803
88.099, 78.086
88.116, 63.369
88.133, 81.651
88.150, 106.934
88.167, 10.488
88.184, 72.765
88.201, 62.042
88.218, 51.320
88.235, 32.599
88.252, 65.878
88.269, 53.805
88.286, 37.528
88.303, 5.701
88.320, 24.632
88.337, 10.109
88.354, 52.318
88.371, 24.208
88.388, 1.140
88.405, 17.328
88.422, 19.387
88.439, 44.571
88.456, 24.755
88.473, 2.937
88.490, 22.118
88.507, 27.363
88.524, 28.532
88.541, 17.699
88.558, 14.866
88.575, 46.031
88.592, 50.195
88.609, 9.356
88.626, 1.514
88.643, 45.670
88.660, 25.504
88.677, 16.636
88.694, 11.770
88.711, 11.904
88.728, 2.965
88.745, 9.164
88.762, 38.291
88.779, 14.417
88.796, 4.461
88.813, 13.660
88.830, 11.779
88.847, 0.105
88.864, 11.010
88.881, 2.109
88.898, 10.218
88.915, 3.324
88.932, 19.426
88.949, 25.520
88.966, 17.610
88.983, 29.699
89.000, 0.782
89.017, 25.858
89.034, 28.924
89.051, 39.982
89.068, 33.030
89.085, 58.031
89.102, 61.072
89.119, 14.102
89.136, 32.136
89.153, 64.162
89.170, 107.288
89.187, 76.445
89.204, 18.518
89.221, 58.693
89.238, 5.211
89.255, 90.970
89.272, 71.160
89.289, 74.350
89.306, 94.536
89.323, 64.610
89.340, 60.832
89.357, 57.057
89.374, 48.638
89.391, 105.852
89.408, 91.058
89.425, 66.071
89.442, 22.147
89.459, 54.237
89.476, 22.423
89.493, 4.614
89.510, 60.639
89.527, 78.835
89.544, 83.041
89.561, 84.258
89.578, 38.487
89.595, 36.723
89.612, 59.966
89.629, 65.425
89.646, 73.588
89.663, 69.746
89.680, 57.897
89.697, 63.074
89.714, 67.313
89.731, 26.569
89.748, 37.619
89.765, 43.881
89.782, 21.143
89.799, 24.402
89.816, 30.741
89.833, 40.200
89.850, 42.716
89.867, 31.290
89.884, 3.971
89.901, 1.227
89.918, 16.733
89.935, 39.878
89.952, 14.735
89.969, 0.479
89.986, 0.000
##END=



