##NAMES=Woodwardite
##RRUFFID=R060762
##IDEAL CHEMISTRY=(Cu^2+^,Al)_9_(S^6+^O_4_)_2_(OH)_18_&#183;nH_2_O
##LOCALITY=Cornwall, England
##OWNER=RRUFF
##SOURCE=Michael Scott
##DESCRIPTION=Pale blue granular coating on bull quartz
##DIFFRACTION SAMPLE DESCRIPTION=Powder, using Mo radiation
##STATUS=The identification of this mineral is not yet confirmed.
##URL=rruff.info/R060762
2.000000, 0.0000000E+00
2.030000, 4.686196
2.060000, 8.682198
2.090000, 6.956650
2.120000, 4.381685
2.150000, 2.436178
2.180000, 1.317997
2.210000, 2.933896
2.240000, 0.9202110
2.270000, 1.672048
2.300000, 0.2149380
2.330000, 0.1244730
2.360000, 1.656241
2.390000, 4.741051
2.420000, 1.6879000E-02
2.450000, 0.5837140
2.480000, 3.947020
2.510000, 11.75257
2.540000, 16.00178
2.570000, 14.16154
2.600000, 13.73262
2.630000, 27.78558
2.660000, 32.80760
2.690000, 21.18062
2.720000, 10.32820
2.750000, 18.06106
2.780000, 29.50955
2.810000, 29.02022
2.840000, 32.09827
2.870000, 35.34105
2.900000, 34.94045
2.930000, 33.21924
2.960000, 31.76280
2.990000, 31.96548
3.020000, 34.01598
3.050000, 41.19444
3.080000, 48.84403
3.110000, 43.75314
3.140000, 36.02007
3.170000, 36.88438
3.200000, 41.87731
3.230000, 46.56320
3.260000, 42.40832
3.290000, 37.22200
3.320000, 31.52744
3.350000, 28.20089
3.380000, 26.20056
3.410000, 32.16571
3.440000, 38.88144
3.470000, 41.16695
3.500000, 43.83648
3.530000, 43.81962
3.560000, 44.28680
3.590000, 39.91473
3.620000, 40.36544
3.650000, 38.57801
3.680000, 37.48337
3.710000, 37.54762
3.740000, 39.38693
3.770000, 35.48454
3.800000, 38.36629
3.830000, 42.25208
3.860000, 40.84611
3.890000, 42.03568
3.920000, 39.99540
3.950000, 39.55534
3.980000, 41.81422
4.010000, 41.68533
4.040000, 42.71096
4.070000, 38.33928
4.100000, 35.76447
4.130000, 35.71145
4.160000, 28.36644
4.190000, 20.84866
4.220000, 19.58430
4.250000, 18.15252
4.280000, 22.37741
4.310000, 29.80905
4.340000, 28.81257
4.370000, 24.48594
4.400000, 20.28522
4.430000, 20.08347
4.460000, 23.67462
4.490000, 23.58772
4.520000, 20.40576
4.550000, 25.61176
4.580000, 21.91574
4.610000, 30.24147
4.640000, 20.36322
4.670000, 17.13891
4.700000, 20.14058
4.730000, 17.10796
4.760000, 18.54488
4.790000, 20.13204
4.820000, 18.71269
4.850000, 12.31767
4.880000, 8.012725
4.910000, 4.461816
4.940000, 0.4072820
4.970000, 0.3038180
5.000000, 0.1914080
5.030000, 0.4782220
5.060000, 12.54263
5.090000, 16.26179
5.120000, 11.96227
5.150000, 5.614007
5.180000, 6.824458
5.210000, 11.08786
5.240000, 17.47381
5.270000, 17.86780
5.300000, 13.81594
5.330000, 17.57716
5.360000, 14.12157
5.390000, 9.000345
5.420000, 11.60640
5.450000, 13.08696
5.480000, 14.40925
5.510000, 12.78623
5.540000, 8.947625
5.570000, 5.727063
5.600000, 2.617905
5.630000, 1.281128
5.660000, 1.379853
5.690000, 0.4884350
5.720000, 1.559106
5.750000, 0.7631360
5.780000, 1.237588
5.810000, 0.4782150
5.840000, 3.607749
5.870000, 0.1142470
5.900000, 2.628772
5.930000, 1.246440
5.960000, 0.3619130
5.990000, 2.444111
6.020000, 0.8041690
6.050000, 0.4234700
6.080000, 1.108403
6.110000, 0.9538650
6.140000, 0.7903570
6.170000, 1.508761
6.200000, 6.431414
6.230000, 10.85225
6.260000, 15.75104
6.290000, 12.00681
6.320000, 8.461185
6.350000, 4.900037
6.380000, 10.29397
6.410000, 10.44422
6.440000, 13.53858
6.470000, 17.13006
6.500000, 20.11644
6.530000, 20.87263
6.560000, 21.50720
6.590000, 26.42842
6.620000, 28.30805
6.650000, 26.40024
6.680000, 26.42865
6.710000, 23.95187
6.740000, 15.10185
6.770000, 10.10589
6.800000, 15.96097
6.830000, 25.50302
6.860000, 34.20306
6.890000, 37.20802
6.920000, 40.19281
6.950000, 47.29649
6.980000, 54.13687
7.010000, 52.43202
7.040000, 47.00689
7.070000, 55.21103
7.100000, 57.61540
7.130000, 48.14868
7.160000, 41.70631
7.190000, 47.72407
7.220000, 55.20268
7.250000, 56.79727
7.280000, 59.67622
7.310000, 66.07742
7.340000, 63.91170
7.370000, 68.57914
7.400000, 77.76038
7.430000, 80.95621
7.460000, 77.74314
7.490000, 77.61049
7.520000, 81.23212
7.550000, 86.27994
7.580000, 89.93781
7.610000, 97.88109
7.640000, 93.50117
7.670000, 82.02833
7.700000, 74.49886
7.730000, 76.21844
7.760000, 82.26733
7.790000, 86.16605
7.820000, 84.07709
7.850000, 82.54166
7.880000, 82.87266
7.910000, 73.72699
7.940000, 68.44878
7.970000, 60.03888
8.000000, 53.30928
8.030000, 57.50595
8.060000, 58.48080
8.090000, 54.62889
8.120000, 61.10611
8.150000, 62.94555
8.180000, 61.92402
8.210000, 58.91460
8.240000, 56.91320
8.270000, 66.42776
8.300000, 75.47843
8.330000, 70.74984
8.360000, 67.84595
8.390000, 65.76695
8.420000, 63.05014
8.450000, 59.81392
8.480000, 53.48344
8.510000, 47.06567
8.540000, 43.37959
8.570000, 46.07510
8.600000, 50.25258
8.630000, 56.47080
8.660000, 56.65003
8.690000, 56.63889
8.720000, 56.43282
8.750000, 58.91944
8.780000, 61.66454
8.810000, 54.27659
8.840000, 40.45524
8.870000, 37.64336
8.900000, 42.61125
8.930000, 50.25544
8.960000, 51.90977
8.990000, 50.59267
9.020000, 49.74251
9.050000, 49.22860
9.080000, 46.42965
9.110000, 39.13562
9.140000, 38.71045
9.170000, 38.25313
9.200000, 38.33289
9.230000, 37.53221
9.260000, 40.27862
9.290000, 36.72849
9.320000, 37.98605
9.350000, 38.91105
9.380000, 32.35158
9.410000, 30.49587
9.440000, 36.41117
9.470000, 38.67702
9.500000, 42.20084
9.530000, 44.17532
9.560000, 38.82426
9.590000, 42.43032
9.620000, 41.92561
9.650000, 32.90242
9.680000, 30.95564
9.710000, 29.05728
9.740000, 28.34757
9.770000, 27.01941
9.800000, 25.25459
9.830000, 25.95962
9.860000, 21.64658
9.890000, 25.96804
9.920000, 25.33533
9.950000, 23.69737
9.980000, 18.62224
10.01000, 20.07482
10.04000, 22.69878
10.07000, 23.60209
10.10000, 26.12818
10.13000, 22.02090
10.16000, 19.75504
10.19000, 22.27515
10.22000, 23.35315
10.25000, 26.07377
10.28000, 26.49818
10.31000, 34.51712
10.34000, 41.19603
10.37000, 46.88114
10.40000, 47.35681
10.43000, 43.66079
10.46000, 32.27800
10.49000, 21.09434
10.52000, 17.65996
10.55000, 16.18678
10.58000, 18.00973
10.61000, 19.87572
10.64000, 17.94861
10.67000, 17.03559
10.70000, 14.80075
10.73000, 10.63961
10.76000, 6.776185
10.79000, 6.690027
10.82000, 11.84370
10.85000, 11.62472
10.88000, 7.903292
10.91000, 4.331025
10.94000, 8.464087
10.97000, 13.34682
11.00000, 8.145285
11.03000, 1.375641
11.06000, 1.788139
11.09000, 0.1709690
11.12000, 0.1072130
11.15000, 3.363740
11.18000, 5.704830
11.21000, 9.541243
11.24000, 9.001439
11.27000, 6.597546
11.30000, 0.1881580
11.33000, 0.5000210
11.36000, 1.453411
11.39000, 3.911702
11.42000, 4.006164
11.45000, 4.628756
11.48000, 4.932158
11.51000, 2.739032
11.54000, 7.832017
11.57000, 17.73421
11.60000, 24.05447
11.63000, 23.18475
11.66000, 28.53118
11.69000, 29.37688
11.72000, 24.67471
11.75000, 15.68351
11.78000, 12.12133
11.81000, 13.48718
11.84000, 15.46200
11.87000, 8.053649
11.90000, 0.3420220
11.93000, 0.6485950
11.96000, 1.099585
11.99000, 1.184534
12.02000, 4.195821
12.05000, 7.413810
12.08000, 11.30040
12.11000, 11.39069
12.14000, 11.48850
12.17000, 10.32059
12.20000, 7.693223
12.23000, 5.223687
12.26000, 0.6071980
12.29000, 3.2228000E-02
12.32000, 0.6069190
12.35000, 0.5809920
12.38000, 1.079407
12.41000, 2.222551
12.44000, 1.022005
12.47000, 0.8547990
12.50000, 0.6528680
12.53000, 0.7678250
12.56000, 0.5540990
12.59000, 0.5434950
12.62000, 0.3103100
12.65000, 1.765247
12.68000, 3.724675
12.71000, 4.705093
12.74000, 5.991785
12.77000, 2.846582
12.80000, 0.3832840
12.83000, 1.785573
12.86000, 3.503364
12.89000, 8.981528
12.92000, 14.22714
12.95000, 11.82034
12.98000, 8.287454
13.01000, 0.2908280
13.04000, 0.2288950
13.07000, 0.7813070
13.10000, 2.0009000E-02
13.13000, 0.6718560
13.16000, 0.6394570
13.19000, 0.1053950
13.22000, 1.558293
13.25000, 0.6394990
13.28000, 4.827059
13.31000, 0.5920110
13.34000, 0.6597810
13.37000, 1.407781
13.40000, 0.1153970
13.43000, 1.021042
13.46000, 9.742294
13.49000, 9.852693
13.52000, 7.214447
13.55000, 6.957673
13.58000, 5.813818
13.61000, 1.426399
13.64000, 0.3360590
13.67000, 7.2531998E-02
13.70000, 0.4268150
13.73000, 0.1687470
13.76000, 1.043781
13.79000, 0.1424830
13.82000, 6.8677999E-02
13.85000, 0.3470800
13.88000, 0.2447860
13.91000, 3.537732
13.94000, 2.664595
13.97000, 1.073309
14.00000, 6.513762
14.03000, 12.18562
14.06000, 19.13859
14.09000, 19.24694
14.12000, 13.24213
14.15000, 6.324059
14.18000, 0.9608690
14.21000, 3.1953000E-02
14.24000, 0.2601040
14.27000, 0.1642630
14.30000, 0.2584070
14.33000, 0.1132400
14.36000, 1.1159000E-02
14.39000, 0.4837270
14.42000, 3.395894
14.45000, 3.256352
14.48000, 1.3931000E-02
14.51000, 1.368611
14.54000, 1.188978
14.57000, 2.851151
14.60000, 0.3338580
14.63000, 1.258180
14.66000, 0.2784430
14.69000, 0.6376740
14.72000, 6.326935
14.75000, 7.548984
14.78000, 5.230824
14.81000, 1.112537
14.84000, 9.9409997E-02
14.87000, 0.2523910
14.90000, 2.470215
14.93000, 3.215173
14.96000, 4.321620
14.99000, 6.135454
15.02000, 10.41414
15.05000, 16.80621
15.08000, 18.58338
15.11000, 15.55777
15.14000, 15.08039
15.17000, 20.93892
15.20000, 27.51869
15.23000, 28.03624
15.26000, 28.54998
15.29000, 28.87831
15.32000, 27.64086
15.35000, 27.28131
15.38000, 21.02952
15.41000, 11.99558
15.44000, 9.898294
15.47000, 11.41370
15.50000, 10.48480
15.53000, 8.041218
15.56000, 4.793707
15.59000, 7.849903
15.62000, 15.08939
15.65000, 15.68525
15.68000, 14.49349
15.71000, 15.93272
15.74000, 13.37886
15.77000, 9.727038
15.80000, 6.726751
15.83000, 6.096765
15.86000, 5.081236
15.89000, 6.432754
15.92000, 7.659919
15.95000, 8.061146
15.98000, 5.118141
16.01000, 0.7952560
16.04000, 8.2780002E-03
16.07000, 0.2162100
16.10000, 3.656733
16.13000, 1.303156
16.16000, 2.954067
16.19000, 9.019984
16.22000, 11.43329
16.25000, 14.49058
16.28000, 17.80331
16.31000, 21.29681
16.34000, 24.41139
16.37000, 27.36844
16.40000, 26.64215
16.43000, 25.90171
16.46000, 25.91398
16.49000, 25.66252
16.52000, 22.09491
16.55000, 18.49405
16.58000, 20.30199
16.61000, 22.54389
16.64000, 26.03148
16.67000, 27.05532
16.70000, 26.62782
16.73000, 26.15723
16.76000, 22.78584
16.79000, 18.22944
16.82000, 11.27459
16.85000, 3.084667
16.88000, 0.8635700
16.91000, 1.157400
16.94000, 6.776924
16.97000, 11.94548
17.00000, 13.16834
17.03000, 15.46562
17.06000, 15.22374
17.09000, 12.13106
17.12000, 8.561024
17.15000, 5.292463
17.18000, 0.4964450
17.21000, 0.4215800
17.24000, 0.3268520
17.27000, 0.6078200
17.30000, 5.448525
17.33000, 6.628477
17.36000, 3.511924
17.39000, 0.4649040
17.42000, 0.2084830
17.45000, 0.1298090
17.48000, 0.2224190
17.51000, 0.1434220
17.54000, 1.792123
17.57000, 4.888497
17.60000, 8.457022
17.63000, 7.541584
17.66000, 4.901775
17.69000, 4.746295
17.72000, 8.720493
17.75000, 12.63593
17.78000, 10.61169
17.81000, 6.528129
17.84000, 4.576873
17.87000, 3.591674
17.90000, 8.384871
17.93000, 14.95568
17.96000, 19.59173
17.99000, 36.58638
18.02000, 54.66131
18.05000, 64.88231
18.08000, 74.23303
18.11000, 78.04742
18.14000, 81.87204
18.17000, 76.15537
18.20000, 70.20896
18.23000, 64.61239
18.26000, 44.25047
18.29000, 36.73953
18.32000, 19.84633
18.35000, 10.60729
18.38000, 2.436354
18.41000, 0.2235680
18.44000, 0.5252060
18.47000, 1.309482
18.50000, 0.7334450
18.53000, 0.3772160
18.56000, 0.1675370
18.59000, 0.3116670
18.62000, 0.7543570
18.65000, 1.404639
18.68000, 4.546098
18.71000, 4.153096
18.74000, 6.959162
18.77000, 8.541412
18.80000, 3.391683
18.83000, 1.444604
18.86000, 3.241399
18.89000, 4.334059
18.92000, 3.570930
18.95000, 3.410644
18.98000, 4.242610
19.01000, 3.949380
19.04000, 5.438935
19.07000, 7.850347
19.10000, 8.946312
19.13000, 8.849169
19.16000, 9.252901
19.19000, 9.019342
19.22000, 8.225113
19.25000, 3.844388
19.28000, 5.965038
19.31000, 3.695304
19.34000, 1.387791
19.37000, 2.204514
19.40000, 3.012098
19.43000, 3.706136
19.46000, 3.399029
19.49000, 1.647898
19.52000, 3.178484
19.55000, 1.500183
19.58000, 5.057748
19.61000, 7.419365
19.64000, 8.515983
19.67000, 7.699090
19.70000, 2.447362
19.73000, 0.3020910
19.76000, 0.1858950
19.79000, 9.2033997E-02
19.82000, 0.2882830
19.85000, 0.2669740
19.88000, 0.7506820
19.91000, 0.6231090
19.94000, 0.5981950
19.97000, 2.133372
20.00000, 4.962725
20.03000, 5.363199
20.06000, 6.499840
20.09000, 10.55276
20.12000, 14.78723
20.15000, 15.78220
20.18000, 17.14367
20.21000, 17.40320
20.24000, 17.44401
20.27000, 18.17610
20.30000, 20.71276
20.33000, 23.64188
20.36000, 22.46176
20.39000, 21.37515
20.42000, 20.56312
20.45000, 23.76942
20.48000, 22.96351
20.51000, 16.80955
20.54000, 14.21116
20.57000, 8.023017
20.60000, 6.766114
20.63000, 4.682410
20.66000, 1.330659
20.69000, 0.2413210
20.72000, 9.7781003E-02
20.75000, 5.1683001E-02
20.78000, 5.835400
20.81000, 11.28955
20.84000, 13.81897
20.87000, 15.88892
20.90000, 19.45325
20.93000, 24.45810
20.96000, 24.35332
20.99000, 19.79573
21.02000, 12.82210
21.05000, 9.655869
21.08000, 12.43090
21.11000, 13.93604
21.14000, 11.59814
21.17000, 8.693316
21.20000, 7.222322
21.23000, 7.580729
21.26000, 10.34420
21.29000, 11.67676
21.32000, 9.219360
21.35000, 6.721962
21.38000, 5.085907
21.41000, 4.763200
21.44000, 5.416302
21.47000, 4.903998
21.50000, 4.166484
21.53000, 2.525337
21.56000, 1.417514
21.59000, 0.9933770
21.62000, 2.453385
21.65000, 4.505195
21.68000, 7.279335
21.71000, 13.33035
21.74000, 16.10758
21.77000, 20.26913
21.80000, 27.30433
21.83000, 31.79194
21.86000, 31.28337
21.89000, 27.84475
21.92000, 24.89082
21.95000, 21.59705
21.98000, 16.49768
22.01000, 11.82321
22.04000, 8.734998
22.07000, 5.129498
22.10000, 2.590569
22.13000, 0.7172910
22.16000, 0.2702550
22.19000, 0.2354060
22.22000, 0.2080010
22.25000, 1.387525
22.28000, 1.486116
22.31000, 0.5894460
22.34000, 0.2653920
22.37000, 0.5931060
22.40000, 0.1212230
22.43000, 1.569671
22.46000, 3.305871
22.49000, 5.167756
22.52000, 7.199693
22.55000, 13.21482
22.58000, 16.79975
22.61000, 14.70051
22.64000, 15.12430
22.67000, 9.036885
22.70000, 9.524881
22.73000, 6.319685
22.76000, 3.865137
22.79000, 0.7151950
22.82000, 0.4579130
22.85000, 0.1644210
22.88000, 0.8917210
22.91000, 1.733871
22.94000, 0.2646060
22.97000, 0.2509330
23.00000, 2.4456000E-02
23.03000, 2.5575999E-02
23.06000, 0.4462570
23.09000, 1.364303
23.12000, 3.605505
23.15000, 6.631593
23.18000, 5.066765
23.21000, 2.796183
23.24000, 0.4080240
23.27000, 1.665161
23.30000, 2.617176
23.33000, 6.155383
23.36000, 8.774129
23.39000, 7.740657
23.42000, 5.289973
23.45000, 2.625564
23.48000, 2.886029
23.51000, 4.829012
23.54000, 7.793223
23.57000, 10.99640
23.60000, 15.33743
23.63000, 16.48630
23.66000, 16.73046
23.69000, 14.95908
23.72000, 12.38845
23.75000, 9.548543
23.78000, 7.218223
23.81000, 5.747278
23.84000, 7.216047
23.87000, 9.177994
23.90000, 10.67471
23.93000, 9.848159
23.96000, 8.989188
23.99000, 9.589401
24.02000, 7.636196
24.05000, 4.144500
24.08000, 0.4935780
24.11000, 0.2234450
24.14000, 0.3520020
24.17000, 5.235056
24.20000, 33.96257
24.23000, 21.92803
24.26000, 23.16501
24.29000, 15.03928
24.32000, 6.745835
24.35000, 7.045331
24.38000, 6.039171
24.41000, 5.264276
24.44000, 5.317230
24.47000, 7.075166
24.50000, 9.894705
24.53000, 10.38585
24.56000, 7.621696
24.59000, 6.254571
24.62000, 7.918561
24.65000, 10.29812
24.68000, 8.818090
24.71000, 5.217330
24.74000, 2.215155
24.77000, 0.2109610
24.80000, 1.5717000E-02
24.83000, 0.2003390
24.86000, 0.4500310
24.89000, 2.680389
24.92000, 5.428617
24.95000, 6.562947
24.98000, 3.249236
25.01000, 1.098560
25.04000, 2.024053
25.07000, 2.179797
25.10000, 2.910559
25.13000, 3.583118
25.16000, 2.578597
25.19000, 4.234722
25.22000, 1.773243
25.25000, 1.453727
25.28000, 1.337957
25.31000, 0.4146420
25.34000, 9.9826001E-02
25.37000, 0.2327050
25.40000, 0.2049870
25.43000, 0.1692900
25.46000, 0.1794220
25.49000, 0.2157450
25.52000, 0.2693980
25.55000, 0.1180420
25.58000, 9.5852003E-02
25.61000, 5.0414000E-02
25.64000, 0.3704270
25.67000, 1.1712000E-02
25.70000, 0.1305280
25.73000, 1.350939
25.76000, 3.909481
25.79000, 5.679862
25.82000, 6.607183
25.85000, 5.932111
25.88000, 2.743771
25.91000, 1.023714
25.94000, 0.1488130
25.97000, 0.4108840
26.00000, 1.221769
26.03000, 1.168878
26.06000, 2.070374
26.09000, 4.023304
26.12000, 4.959077
26.15000, 6.286695
26.18000, 6.910648
26.21000, 8.059999
26.24000, 9.420660
26.27000, 14.11461
26.30000, 18.98285
26.33000, 19.40149
26.36000, 17.56452
26.39000, 17.20421
26.42000, 17.56857
26.45000, 17.59140
26.48000, 18.86875
26.51000, 20.16894
26.54000, 20.27770
26.57000, 17.64046
26.60000, 11.84866
26.63000, 7.968567
26.66000, 10.66835
26.69000, 12.00996
26.72000, 10.21414
26.75000, 7.963416
26.78000, 6.191619
26.81000, 5.406397
26.84000, 5.061109
26.87000, 4.138534
26.90000, 2.734938
26.93000, 5.178812
26.96000, 6.401091
26.99000, 6.373584
27.02000, 4.778523
27.05000, 3.801614
27.08000, 3.434756
27.11000, 2.974649
27.14000, 2.402585
27.17000, 2.606386
27.20000, 3.181307
27.23000, 3.741151
27.26000, 6.151278
27.29000, 5.493240
27.32000, 6.407928
27.35000, 6.837783
27.38000, 3.363156
27.41000, 0.6797070
27.44000, 1.287840
27.47000, 3.148231
27.50000, 1.569208
27.53000, 1.445569
27.56000, 0.3093990
27.59000, 1.241966
27.62000, 3.166071
27.65000, 3.663037
27.68000, 3.936711
27.71000, 3.708131
27.74000, 3.668294
27.77000, 3.905107
27.80000, 2.713810
27.83000, 0.5545080
27.86000, 7.8100001E-04
27.89000, 5.9604000E-02
27.92000, 2.014660
27.95000, 3.649207
27.98000, 4.536738
28.01000, 4.345041
28.04000, 5.630143
28.07000, 4.380024
28.10000, 3.028713
28.13000, 5.429214
28.16000, 3.704320
28.19000, 2.921237
28.22000, 2.706578
28.25000, 0.4393590
28.28000, 0.2063210
28.31000, 5.1502001E-02
28.34000, 3.933801
28.37000, 2.854632
28.40000, 4.951392
28.43000, 9.160089
28.46000, 9.507159
28.49000, 6.036815
28.52000, 3.521819
28.55000, 5.242818
28.58000, 6.274342
28.61000, 5.808204
28.64000, 6.764241
28.67000, 5.589257
28.70000, 3.862759
28.73000, 6.872588
28.76000, 8.179157
28.79000, 6.688915
28.82000, 7.142860
28.85000, 7.127758
28.88000, 8.065681
28.91000, 7.453966
28.94000, 5.816203
28.97000, 7.617536
29.00000, 11.19700
29.03000, 10.44587
29.06000, 10.73693
29.09000, 9.475410
29.12000, 5.127124
29.15000, 2.190324
29.18000, 2.095042
29.21000, 3.324918
29.24000, 4.158041
29.27000, 6.516934
29.30000, 6.844097
29.33000, 7.427837
29.36000, 7.824691
29.39000, 7.735689
29.42000, 7.774899
29.45000, 8.139489
29.48000, 9.066078
29.51000, 9.650282
29.54000, 8.150663
29.57000, 6.157794
29.60000, 3.613614
29.63000, 2.575452
29.66000, 2.870553
29.69000, 3.143507
29.72000, 1.938244
29.75000, 4.476962
29.78000, 7.899685
29.81000, 6.420400
29.84000, 4.532106
29.87000, 3.399939
29.90000, 0.6841970
29.93000, 0.2330840
29.96000, 0.3582260
29.99000, 0.2976370
30.02000, 2.027124
30.05000, 0.8594530
30.08000, 1.614147
30.11000, 3.464126
30.14000, 4.936621
30.17000, 6.137106
30.20000, 7.301301
30.23000, 8.167887
30.26000, 8.572525
30.29000, 9.065475
30.32000, 8.539588
30.35000, 7.722776
30.38000, 5.037070
30.41000, 2.858593
30.44000, 2.875444
30.47000, 2.831541
30.50000, 1.561994
30.53000, 0.3463100
30.56000, 7.6580001E-03
30.59000, 0.1768430
30.62000, 0.2125720
30.65000, 0.1074920
30.68000, 3.5349000E-02
30.71000, 0.2300270
30.74000, 0.1322330
30.77000, 0.2199910
30.80000, 0.1069280
30.83000, 0.2474040
30.86000, 0.1245070
30.89000, 0.3930340
30.92000, 0.1335410
30.95000, 9.3598999E-02
30.98000, 4.7639001E-02
31.01000, 1.520594
31.04000, 0.1391660
31.07000, 0.1767020
31.10000, 0.1887930
31.13000, 0.7865870
31.16000, 2.354350
31.19000, 5.076073
31.22000, 5.537868
31.25000, 9.512842
31.28000, 11.11594
31.31000, 9.609530
31.34000, 7.993354
31.37000, 11.72217
31.40000, 16.94294
31.43000, 78.97269
31.46000, 45.31434
31.49000, 96.48570
31.52000, 16.42333
31.55000, 16.35997
31.58000, 14.39057
31.61000, 9.281118
31.64000, 8.637646
31.67000, 9.141109
31.70000, 8.496583
31.73000, 8.211987
31.76000, 9.151363
31.79000, 9.853720
31.82000, 12.03504
31.85000, 11.01332
31.88000, 9.252822
31.91000, 11.42264
31.94000, 11.90386
31.97000, 10.73314
32.00000, 12.36080
32.03000, 10.92632
32.06000, 11.19243
32.09000, 9.828561
32.12000, 8.126649
32.15000, 6.809711
32.18000, 3.014753
32.21000, 2.073793
32.24000, 1.147836
32.27000, 0.9968810
32.30000, 4.6130002E-02
32.33000, 0.4915960
32.36000, 0.3313130
32.39000, 0.1532940
32.42000, 0.4029280
32.45000, 5.7358000E-02
32.48000, 0.1184740
32.51000, 0.7090290
32.54000, 1.520568
32.57000, 1.972620
32.60000, 1.480093
32.63000, 0.3410680
32.66000, 0.1345420
32.69000, 1.356260
32.72000, 3.506736
32.75000, 6.251134
32.78000, 9.285192
32.81000, 6.661685
32.84000, 4.402658
32.87000, 4.833056
32.90000, 4.159904
32.93000, 5.493686
32.96000, 6.697380
32.99000, 1.691987
33.02000, 0.5114960
33.05000, 0.2550820
33.08000, 9.6735001E-02
33.11000, 0.1668400
33.14000, 1.562095
33.17000, 1.050607
33.20000, 1.738276
33.23000, 3.277487
33.26000, 0.3225910
33.29000, 2.836638
33.32000, 5.475813
33.35000, 9.184877
33.38000, 10.62681
33.41000, 12.67561
33.44000, 17.31602
33.47000, 16.17278
33.50000, 16.69516
33.53000, 18.11009
33.56000, 76.40839
33.59000, 131.4572
33.62000, 67.80272
33.65000, 18.64138
33.68000, 14.17687
33.71000, 11.76815
33.74000, 11.66726
33.77000, 12.18619
33.80000, 13.26493
33.83000, 11.53346
33.86000, 11.30180
33.89000, 13.64695
33.92000, 15.24890
33.95000, 15.93065
33.98000, 14.97019
34.01000, 13.44655
34.04000, 12.01567
34.07000, 12.02955
34.10000, 10.76757
34.13000, 7.348545
34.16000, 6.874266
34.19000, 7.602685
34.22000, 7.809874
34.25000, 8.919765
34.28000, 6.397681
34.31000, 6.036549
34.34000, 4.209684
34.37000, 3.747335
34.40000, 7.560107
34.43000, 10.61140
34.46000, 7.490723
34.49000, 6.077806
34.52000, 6.660241
34.55000, 6.357692
34.58000, 5.114417
34.61000, 4.299189
34.64000, 1.989112
34.67000, 0.1384570
34.70000, 0.2438130
34.73000, 1.216556
34.76000, 1.128304
34.79000, 3.381895
34.82000, 5.222398
34.85000, 6.811757
34.88000, 6.578956
34.91000, 6.247419
34.94000, 2.419917
34.97000, 3.254662
35.00000, 2.584375
35.03000, 0.4430870
35.06000, 0.1168640
35.09000, 3.441297
35.12000, 5.289662
35.15000, 5.496884
35.18000, 4.761938
35.21000, 2.389827
35.24000, 1.574556
35.27000, 4.943124
35.30000, 6.793541
35.33000, 3.220791
35.36000, 0.9294770
35.39000, 4.900809
35.42000, 5.374572
35.45000, 4.691164
35.48000, 6.375737
35.51000, 4.368300
35.54000, 3.905713
35.57000, 4.567298
35.60000, 4.247837
35.63000, 5.336824
35.66000, 3.137928
35.69000, 6.557457
35.72000, 6.075802
35.75000, 4.795218
35.78000, 5.689369
35.81000, 4.636905
35.84000, 3.456262
35.87000, 3.443441
35.90000, 4.193278
35.93000, 4.813082
35.96000, 2.546683
35.99000, 0.1699750
36.02000, 0.2120350
36.05000, 0.2415970
36.08000, 0.3335820
36.11000, 0.3922330
36.14000, 1.493305
36.17000, 1.842454
36.20000, 2.532621
36.23000, 2.753002
36.26000, 3.905293
36.29000, 2.984915
36.32000, 1.602291
36.35000, 3.461152
36.38000, 6.735409
36.41000, 10.27534
36.44000, 11.25903
36.47000, 17.57957
36.50000, 21.12385
36.53000, 17.78194
36.56000, 16.72583
36.59000, 15.59948
36.62000, 14.74193
36.65000, 17.41949
36.68000, 18.66747
36.71000, 20.43210
36.74000, 19.91039
36.77000, 16.72703
36.80000, 14.86681
36.83000, 15.66740
36.86000, 15.13808
36.89000, 13.37490
36.92000, 10.33756
36.95000, 6.881099
36.98000, 3.508692
37.01000, 0.2707200
37.04000, 0.2858900
37.07000, 0.1371340
37.10000, 0.3457570
37.13000, 0.3031830
37.16000, 0.1594860
37.19000, 0.3423450
37.22000, 0.7772950
37.25000, 3.578851
37.28000, 3.924875
37.31000, 3.397460
37.34000, 3.230214
37.37000, 5.954547
37.40000, 8.875954
37.43000, 8.591223
37.46000, 7.202366
37.49000, 4.684083
37.52000, 2.104371
37.55000, 1.441546
37.58000, 0.7376770
37.61000, 0.8991920
37.64000, 0.3096690
37.67000, 0.1323690
37.70000, 0.3708590
37.73000, 1.099499
37.76000, 0.1540360
37.79000, 0.1871530
37.82000, 1.248040
37.85000, 0.1473110
37.88000, 0.3379340
37.91000, 1.675273
37.94000, 2.349652
37.97000, 3.928180
38.00000, 4.571386
38.03000, 5.048710
38.06000, 3.745692
38.09000, 0.9759870
38.12000, 4.3985002E-02
38.15000, 0.8713310
38.18000, 0.2500760
38.21000, 0.3892480
38.24000, 1.246060
38.27000, 0.8683340
38.30000, 2.195338
38.33000, 3.134605
38.36000, 1.452242
38.39000, 0.8994070
38.42000, 1.217176
38.45000, 3.982413
38.48000, 6.786026
38.51000, 8.221702
38.54000, 10.00375
38.57000, 9.229986
38.60000, 9.893736
38.63000, 11.11609
38.66000, 10.44949
38.69000, 12.17356
38.72000, 13.75650
38.75000, 11.72527
38.78000, 9.681955
38.81000, 8.697662
38.84000, 4.954956
38.87000, 4.596928
38.90000, 7.113757
38.93000, 10.56925
38.96000, 6.379110
38.99000, 1.969232
39.02000, 2.797925
39.05000, 2.986177
39.08000, 2.562296
39.11000, 1.240195
39.14000, 0.2647320
39.17000, 0.2634720
39.20000, 0.1304060
39.23000, 1.131445
39.26000, 1.506191
39.29000, 0.5840190
39.32000, 5.180930
39.35000, 6.507479
39.38000, 4.406081
39.41000, 3.990582
39.44000, 2.140523
39.47000, 1.111614
39.50000, 1.665882
39.53000, 3.486816
39.56000, 3.814973
39.59000, 4.400811
39.62000, 4.570436
39.65000, 3.833255
39.68000, 4.181212
39.71000, 4.859404
39.74000, 4.133537
39.77000, 2.666718
39.80000, 4.407269
39.83000, 2.791786
39.86000, 0.2183210
39.89000, 0.2761320
39.92000, 0.1348530
39.95000, 0.2963560
39.98000, 3.068336
40.01000, 6.812232
40.04000, 11.65050
40.07000, 10.91542
40.10000, 8.433920
40.13000, 9.357487
40.16000, 10.28200
40.19000, 9.712811
40.22000, 9.651764
40.25000, 8.127790
40.28000, 6.947590
40.31000, 8.650734
40.34000, 7.789469
40.37000, 5.559273
40.40000, 7.994141
40.43000, 5.567358
40.46000, 4.975889
40.49000, 5.910385
40.52000, 5.675756
40.55000, 4.691494
40.58000, 4.653708
40.61000, 5.952368
40.64000, 6.451131
40.67000, 4.010307
40.70000, 2.177460
40.73000, 2.055124
40.76000, 0.8690310
40.79000, 0.3331230
40.82000, 0.4668580
40.85000, 0.1281250
40.88000, 0.9225890
40.91000, 1.837670
40.94000, 2.312815
40.97000, 3.328067
41.00000, 3.030950
41.03000, 4.206333
41.06000, 4.866233
41.09000, 3.803441
41.12000, 2.039768
41.15000, 4.732904
41.18000, 7.617139
41.21000, 7.085693
41.24000, 4.614503
41.27000, 2.891664
41.30000, 0.2080580
41.33000, 0.3695840
41.36000, 5.5218000E-02
41.39000, 5.5809999E-03
41.42000, 6.6376999E-02
41.45000, 0.1915230
41.48000, 3.385881
41.51000, 4.995863
41.54000, 5.543165
41.57000, 4.136183
41.60000, 1.762708
41.63000, 0.7720460
41.66000, 2.363080
41.69000, 2.317105
41.72000, 3.308467
41.75000, 3.759156
41.78000, 3.653502
41.81000, 1.415945
41.84000, 1.954405
41.87000, 1.380400
41.90000, 0.7606220
41.93000, 1.689635
41.96000, 0.2355960
41.99000, 0.5465460
42.02000, 0.4018710
42.05000, 0.3307600
42.08000, 0.9612560
42.11000, 1.0800000E-03
42.14000, 0.1355910
42.17000, 4.1625001E-02
42.20000, 1.486117
42.23000, 4.788974
42.26000, 8.723921
42.29000, 9.764045
42.32000, 7.392286
42.35000, 4.179480
42.38000, 4.053968
42.41000, 4.202245
42.44000, 5.211299
42.47000, 7.140741
42.50000, 4.010980
42.53000, 0.9772820
42.56000, 1.450993
42.59000, 0.5206820
42.62000, 0.1778390
42.65000, 0.2777970
42.68000, 0.4851840
42.71000, 5.713845
42.74000, 3.111378
42.77000, 5.112979
42.80000, 9.629526
42.83000, 6.048656
42.86000, 1.174461
42.89000, 0.2008400
42.92000, 1.328996
42.95000, 3.9317001E-02
42.98000, 1.173693
43.01000, 3.455427
43.04000, 2.220344
43.07000, 1.865434
43.10000, 1.399493
43.13000, 1.983264
43.16000, 0.4078730
43.19000, 0.1086810
43.22000, 0.3087580
43.25000, 6.6413999E-02
43.28000, 5.9333000E-02
43.31000, 1.427719
43.34000, 1.731711
43.37000, 3.756362
43.40000, 3.674605
43.43000, 3.841927
43.46000, 4.648739
43.49000, 4.901948
43.52000, 4.634099
43.55000, 3.540619
43.58000, 2.596902
43.61000, 2.236785
43.64000, 1.508713
43.67000, 1.496556
43.70000, 0.6540810
43.73000, 0.7392590
43.76000, 0.1671150
43.79000, 0.6232400
43.82000, 2.548027
43.85000, 4.862885
43.88000, 5.574225
43.91000, 4.743321
43.94000, 2.110387
43.97000, 0.4496060
44.00000, 2.758882
44.03000, 1.505622
44.06000, 5.293867
44.09000, 7.671141
44.12000, 8.668365
44.15000, 6.673752
44.18000, 6.613283
44.21000, 4.598868
44.24000, 3.924917
44.27000, 2.801322
44.30000, 2.117147
44.33000, 1.500980
44.36000, 3.163563
44.39000, 2.328507
44.42000, 4.232806
44.45000, 5.406749
44.48000, 4.566001
44.51000, 4.842705
44.54000, 4.623652
44.57000, 4.651032
44.60000, 5.361082
44.63000, 5.097661
44.66000, 4.386407
44.69000, 2.124712
44.72000, 3.376269
44.75000, 6.338989
44.78000, 4.726054
44.81000, 2.887378
44.84000, 2.752571
44.87000, 1.266275
44.90000, 1.6580001E-03
44.93000, 8.2603000E-02
44.96000, 0.1266790
44.99000, 0.2308180
45.02000, 9.2560001E-02
45.05000, 0.2826300
45.08000, 4.3476999E-02
45.11000, 3.0422000E-02
45.14000, 0.2537920
45.17000, 0.3032450
45.20000, 1.262628
45.23000, 2.545247
45.26000, 1.694653
45.29000, 1.153031
45.32000, 2.871625
45.35000, 3.221287
45.38000, 1.324224
45.41000, 1.033839
45.44000, 0.8386040
45.47000, 0.3322390
45.50000, 0.8817570
45.53000, 0.8477900
45.56000, 1.530347
45.59000, 2.788848
45.62000, 4.816428
45.65000, 2.798296
45.68000, 3.141540
45.71000, 5.909984
45.74000, 3.858886
45.77000, 3.098809
45.80000, 4.273520
45.83000, 4.289811
45.86000, 5.202892
45.89000, 2.357778
45.92000, 1.693345
45.95000, 4.256905
45.98000, 5.872050
46.01000, 6.082602
46.04000, 4.624538
46.07000, 4.668471
46.10000, 4.656399
46.13000, 9.285306
46.16000, 10.84162
46.19000, 6.344730
46.22000, 1.486828
46.25000, 6.8493001E-02
46.28000, 0.2452580
46.31000, 0.1144110
46.34000, 8.2788996E-02
46.37000, 0.2453770
46.40000, 0.1162940
46.43000, 8.3922997E-02
46.46000, 0.1592700
46.49000, 0.1800480
46.52000, 0.1109330
46.55000, 0.1329460
46.58000, 0.8972080
46.61000, 5.4999001E-02
46.64000, 2.586008
46.67000, 2.648600
46.70000, 0.5970990
46.73000, 3.456120
46.76000, 6.566898
46.79000, 5.043467
46.82000, 4.172259
46.85000, 6.363925
46.88000, 8.357611
46.91000, 7.037922
46.94000, 7.057415
46.97000, 2.688921
47.00000, 2.947103
47.03000, 0.7728240
47.06000, 0.2116480
47.09000, 0.9380100
47.12000, 0.2238870
47.15000, 7.3919999E-03
47.18000, 1.258710
47.21000, 3.136394
47.24000, 4.073016
47.27000, 5.532272
47.30000, 7.508347
47.33000, 7.055762
47.36000, 4.661710
47.39000, 0.5337900
47.42000, 0.8856360
47.45000, 1.883831
47.48000, 3.570484
47.51000, 3.245888
47.54000, 4.271796
47.57000, 4.657247
47.60000, 4.747303
47.63000, 4.895155
47.66000, 4.297478
47.69000, 3.545423
47.72000, 1.915806
47.75000, 1.412234
47.78000, 3.373385
47.81000, 7.479863
47.84000, 5.224833
47.87000, 3.944308
47.90000, 5.451006
47.93000, 2.952321
47.96000, 7.6159000E-02
47.99000, 0.3263110
48.02000, 0.3954800
48.05000, 0.1457950
48.08000, 4.5056000E-02
48.11000, 1.6066000E-02
48.14000, 0.4858360
48.17000, 1.896293
48.20000, 4.313163
48.23000, 3.324776
48.26000, 3.459607
48.29000, 6.127869
48.32000, 6.838156
48.35000, 8.764494
48.38000, 9.324345
48.41000, 6.674317
48.44000, 4.070633
48.47000, 3.656480
48.50000, 2.369541
48.53000, 2.773817
48.56000, 3.435946
48.59000, 1.691202
48.62000, 1.838561
48.65000, 2.885113
48.68000, 1.917973
48.71000, 0.6931430
48.74000, 3.6319999E-03
48.77000, 0.1063350
48.80000, 1.949032
48.83000, 5.143416
48.86000, 5.788043
48.89000, 4.342532
48.92000, 3.259478
48.95000, 5.870673
48.98000, 9.809713
49.01000, 12.62591
49.04000, 13.55427
49.07000, 11.59829
49.10000, 7.887176
49.13000, 2.299613
49.16000, 1.262574
49.19000, 4.625517
49.22000, 6.246416
49.25000, 9.417385
49.28000, 8.127212
49.31000, 2.803502
49.34000, 1.073596
49.37000, 1.691128
49.40000, 2.900496
49.43000, 3.121432
49.46000, 3.023834
49.49000, 3.747683
49.52000, 3.539832
49.55000, 3.727988
49.58000, 3.213975
49.61000, 1.632945
49.64000, 0.7434880
49.67000, 9.0756997E-02
49.70000, 0.6653990
49.73000, 1.809260
49.76000, 0.8289460
49.79000, 4.198891
49.82000, 0.7024620
49.85000, 7.7367999E-02
49.88000, 1.502552
49.91000, 0.9182440
49.94000, 3.740023
49.97000, 4.300533
50.00000, 0.4436240
50.03000, 0.8167200
50.06000, 2.175105
50.09000, 3.264261
50.12000, 2.501931
50.15000, 4.595590
50.18000, 4.213618
50.21000, 0.8904600
50.24000, 0.3147090
50.27000, 6.9815002E-02
50.30000, 0.3960260
50.33000, 0.1070400
50.36000, 0.1859710
50.39000, 0.1042350
50.42000, 3.395205
50.45000, 4.904693
50.48000, 5.783895
50.51000, 3.781808
50.54000, 3.322941
50.57000, 3.121670
50.60000, 1.178721
50.63000, 6.3386999E-02
50.66000, 0.1526160
50.69000, 7.4114002E-02
50.72000, 0.6334020
50.75000, 1.095958
50.78000, 1.146198
50.81000, 9.5977001E-02
50.84000, 2.522312
50.87000, 4.238583
50.90000, 3.054801
50.93000, 6.456171
50.96000, 7.351789
50.99000, 3.641074
51.02000, 2.024279
51.05000, 0.9261360
51.08000, 1.549641
51.11000, 6.706999
51.14000, 8.095098
51.17000, 6.277844
51.20000, 5.647414
51.23000, 3.570480
51.26000, 1.584913
51.29000, 1.994727
51.32000, 1.335289
51.35000, 3.3689000E-02
51.38000, 0.2893920
51.41000, 0.2940710
51.44000, 0.1245640
51.47000, 3.075117
51.50000, 3.930634
51.53000, 4.971408
51.56000, 6.782571
51.59000, 6.109131
51.62000, 2.167861
51.65000, 1.4674000E-02
51.68000, 1.915351
51.71000, 3.139682
51.74000, 4.742770
51.77000, 6.066028
51.80000, 4.081220
51.83000, 2.386719
51.86000, 1.824513
51.89000, 0.3233390
51.92000, 0.6484320
51.95000, 1.030322
51.98000, 1.495538
52.01000, 2.490467
52.04000, 0.6942160
52.07000, 0.1878740
52.10000, 0.1793250
52.13000, 0.1617800
52.16000, 0.3362480
52.19000, 1.0217000E-02
52.22000, 0.5415870
52.25000, 1.574883
52.28000, 2.958048
52.31000, 1.084603
52.34000, 1.706335
52.37000, 0.1815330
52.40000, 2.477188
52.43000, 3.998881
52.46000, 4.444622
52.49000, 0.5909630
52.52000, 2.289787
52.55000, 1.763763
52.58000, 1.146823
52.61000, 3.627658
52.64000, 0.4004590
52.67000, 2.832769
52.70000, 3.006086
52.73000, 4.213325
52.76000, 3.181763
52.79000, 2.841749
52.82000, 4.741268
52.85000, 5.400795
52.88000, 4.111626
52.91000, 1.190470
52.94000, 1.1123000E-02
52.97000, 5.476989
53.00000, 8.814681
53.03000, 8.913916
53.06000, 8.636754
53.09000, 9.995937
53.12000, 8.979722
53.15000, 7.888271
53.18000, 7.292346
53.21000, 4.895946
53.24000, 2.986576
53.27000, 4.392945
53.30000, 4.575352
53.33000, 4.739988
53.36000, 5.209501
53.39000, 3.791219
53.42000, 0.7369650
53.45000, 1.057303
53.48000, 1.487270
53.51000, 8.030649
53.54000, 4.599907
53.57000, 5.531959
53.60000, 6.939672
53.63000, 5.744429
53.66000, 5.617455
53.69000, 6.279678
53.72000, 7.515614
53.75000, 7.196158
53.78000, 7.785623
53.81000, 9.109779
53.84000, 8.014937
53.87000, 10.48642
53.90000, 7.140180
53.93000, 4.715751
53.96000, 5.372125
53.99000, 4.130077
54.02000, 6.404320
54.05000, 10.24091
54.08000, 9.867842
54.11000, 10.77235
54.14000, 10.65968
54.17000, 8.448290
54.20000, 8.640375
54.23000, 4.715903
54.26000, 3.433404
54.29000, 2.459039
54.32000, 2.622903
54.35000, 3.962533
54.38000, 2.974100
54.41000, 3.370501
54.44000, 2.953515
54.47000, 2.033519
54.50000, 3.300067
54.53000, 0.7170580
54.56000, 8.2998998E-02
54.59000, 0.2309300
54.62000, 6.4947002E-02
54.65000, 0.3560480
54.68000, 2.925329
54.71000, 3.310665
54.74000, 1.690433
54.77000, 0.1330300
54.80000, 0.2495190
54.83000, 1.9169999E-02
54.86000, 1.976493
54.89000, 5.981282
54.92000, 5.182231
54.95000, 4.090844
54.98000, 3.456825
55.01000, 3.818707
55.04000, 2.667674
55.07000, 1.379716
55.10000, 1.288319
55.13000, 5.1816002E-02
55.16000, 6.7571998E-02
55.19000, 2.0330001E-03
55.22000, 0.2099450
55.25000, 0.5004540
55.28000, 0.4167110
55.31000, 0.2954650
55.34000, 5.217837
55.37000, 7.390943
55.40000, 5.922493
55.43000, 7.169544
55.46000, 7.521247
55.49000, 8.806711
55.52000, 9.027584
55.55000, 6.563334
55.58000, 4.283925
55.61000, 2.823367
55.64000, 1.804551
55.67000, 2.9060001E-02
55.70000, 0.1509780
55.73000, 0.1414030
55.76000, 0.3080340
55.79000, 0.3653540
55.82000, 0.9888430
55.85000, 5.105830
55.88000, 6.578483
55.91000, 6.848580
55.94000, 6.211055
55.97000, 8.370982
56.00000, 8.899095
56.03000, 8.939863
56.06000, 6.779767
56.09000, 3.764156
56.12000, 5.732621
56.15000, 10.18384
56.18000, 11.07203
56.21000, 8.894114
56.24000, 10.53920
56.27000, 11.77917
56.30000, 10.55536
56.33000, 10.32899
56.36000, 11.72830
56.39000, 9.622649
56.42000, 8.996552
56.45000, 7.855314
56.48000, 6.641118
56.51000, 3.732198
56.54000, 5.073493
56.57000, 2.834644
56.60000, 2.813563
56.63000, 3.953028
56.66000, 6.704743
56.69000, 10.25243
56.72000, 11.33758
56.75000, 10.81878
56.78000, 10.57964
56.81000, 7.431962
56.84000, 7.640443
56.87000, 8.321758
56.90000, 5.176274
56.93000, 0.1254600
56.96000, 2.4385000E-02
56.99000, 1.414894
57.02000, 1.347029
57.05000, 4.691751
57.08000, 3.923038
57.11000, 4.157059
57.14000, 8.511702
57.17000, 12.10927
57.20000, 9.892967
57.23000, 5.678473
57.26000, 4.916049
57.29000, 5.616343
57.32000, 5.923654
57.35000, 5.407730
57.38000, 5.378189
57.41000, 5.290377
57.44000, 4.968127
57.47000, 6.062107
57.50000, 7.288877
57.53000, 5.614989
57.56000, 1.325113
57.59000, 3.2373998E-02
57.62000, 3.075733
57.65000, 3.393508
57.68000, 5.155103
57.71000, 5.346519
57.74000, 4.847153
57.77000, 4.360115
57.80000, 5.443711
57.83000, 5.707189
57.86000, 6.522717
57.89000, 7.483253
57.92000, 8.018830
57.95000, 8.611712
57.98000, 8.218081
58.01000, 6.435116
58.04000, 6.279148
58.07000, 3.703465
58.10000, 2.979061
58.13000, 3.442960
58.16000, 2.600729
58.19000, 5.548400
58.22000, 9.537371
58.25000, 8.181855
58.28000, 11.49721
58.31000, 10.10840
58.34000, 6.761176
58.37000, 6.240279
58.40000, 5.890667
58.43000, 3.583494
58.46000, 1.753216
58.49000, 0.4192030
58.52000, 3.006783
58.55000, 2.949249
58.58000, 5.600227
58.61000, 3.747998
58.64000, 1.957760
58.67000, 1.370585
58.70000, 1.507302
58.73000, 2.309145
58.76000, 2.787576
58.79000, 5.252030
58.82000, 4.511198
58.85000, 7.168432
58.88000, 3.460036
58.91000, 2.978701
58.94000, 1.563822
58.97000, 0.7812780
59.00000, 1.267748
59.03000, 1.1286000E-02
59.06000, 0.1302180
59.09000, 4.578537
59.12000, 6.714542
59.15000, 3.962674
59.18000, 2.810460
59.21000, 0.2566320
59.24000, 8.2891002E-02
59.27000, 3.356518
59.30000, 2.121015
59.33000, 2.008746
59.36000, 3.172140
59.39000, 1.341843
59.42000, 0.1182500
59.45000, 0.1056930
59.48000, 0.1368080
59.51000, 3.3320000E-03
59.54000, 0.1611190
59.57000, 0.2110840
59.60000, 0.2157390
59.63000, 0.2463230
59.66000, 0.2220110
59.69000, 0.2653050
59.72000, 0.1599310
59.75000, 1.588610
59.78000, 0.1874240
59.81000, 0.2413560
59.84000, 0.1868380
59.87000, 2.986218
59.90000, 5.834277
59.93000, 8.346025
59.96000, 8.335167
59.99000, 6.144487
60.02000, 5.618969
60.05000, 8.116584
60.08000, 9.777761
60.11000, 12.16268
60.14000, 10.05170
60.17000, 8.332823
60.20000, 6.297300
60.23000, 5.464018
60.26000, 4.473337
60.29000, 4.431800
60.32000, 3.773666
60.35000, 4.059661
60.38000, 4.504961
60.41000, 4.877863
60.44000, 4.787681
60.47000, 6.063615
60.50000, 5.187387
60.53000, 3.401405
60.56000, 5.242740
60.59000, 5.606528
60.62000, 9.314870
60.65000, 12.28408
60.68000, 4.292843
60.71000, 0.8526320
60.74000, 3.136690
60.77000, 6.995343
60.80000, 9.394610
60.83000, 7.510039
60.86000, 4.255184
60.89000, 2.079353
60.92000, 3.388418
60.95000, 3.410972
60.98000, 7.193738
61.01000, 8.844067
61.04000, 6.926270
61.07000, 7.008399
61.10000, 5.649487
61.13000, 3.699800
61.16000, 5.094587
61.19000, 2.217161
61.22000, 3.682783
61.25000, 2.986847
61.28000, 1.449666
61.31000, 4.120982
61.34000, 4.755445
61.37000, 1.971241
61.40000, 1.547566
61.43000, 0.8075970
61.46000, 9.4212003E-02
61.49000, 2.140441
61.52000, 3.440753
61.55000, 2.987233
61.58000, 2.406715
61.61000, 1.989701
61.64000, 4.523721
61.67000, 4.072721
61.70000, 6.408587
61.73000, 6.897665
61.76000, 5.120545
61.79000, 4.596379
61.82000, 2.330049
61.85000, 0.9553460
61.88000, 2.646162
61.91000, 1.608493
61.94000, 0.1316720
61.97000, 0.7954040
62.00000, 0.1698140
62.03000, 4.085278
62.06000, 6.251498
62.09000, 5.718822
62.12000, 6.988091
62.15000, 4.324099
62.18000, 1.525491
62.21000, 4.974844
62.24000, 6.272355
62.27000, 5.272449
62.30000, 6.352930
62.33000, 5.045776
62.36000, 4.881281
62.39000, 5.389306
62.42000, 3.618706
62.45000, 3.694381
62.48000, 2.391934
62.51000, 2.687135
62.54000, 0.3654760
62.57000, 0.1481170
62.60000, 0.6417070
62.63000, 0.1277030
62.66000, 0.8779790
62.69000, 3.640432
62.72000, 3.395267
62.75000, 4.338494
62.78000, 1.523759
62.81000, 6.5408997E-02
62.84000, 3.0817000E-02
62.87000, 0.4117220
62.90000, 4.389094
62.93000, 3.237709
62.96000, 3.982210
62.99000, 9.686687
63.02000, 10.11202
63.05000, 10.88852
63.08000, 11.74483
63.11000, 12.81701
63.14000, 12.04362
63.17000, 12.70963
63.20000, 9.830593
63.23000, 6.012061
63.26000, 3.657033
63.29000, 2.370764
63.32000, 0.1110670
63.35000, 8.3068997E-02
63.38000, 0.8615140
63.41000, 0.9484410
63.44000, 0.1120010
63.47000, 2.957225
63.50000, 3.495012
63.53000, 5.639198
63.56000, 3.753445
63.59000, 6.477037
63.62000, 4.117063
63.65000, 2.101342
63.68000, 1.112563
63.71000, 1.8888000E-02
63.74000, 1.769555
63.77000, 4.258078
63.80000, 2.057942
63.83000, 2.875588
63.86000, 3.856606
63.89000, 3.437783
63.92000, 2.621989
63.95000, 1.961355
63.98000, 0.7501720
64.01000, 0.1003190
64.04000, 9.5743999E-02
64.07000, 0.6159350
64.10000, 0.1035230
64.13000, 2.638592
64.16000, 3.967263
64.19000, 1.037765
64.22000, 3.451188
64.25000, 2.461460
64.28000, 1.164628
64.31000, 0.2580940
64.34000, 2.1035001E-02
64.37000, 0.6122340
64.40000, 3.0118000E-02
64.43000, 1.983782
64.46000, 2.435534
64.49000, 2.568196
64.52000, 3.121554
64.55000, 1.754735
64.58000, 2.912792
64.61000, 0.9289060
64.64000, 4.165061
64.67000, 4.126646
64.70000, 4.566917
64.73000, 8.364157
64.76000, 9.180462
64.79000, 3.656398
64.82000, 4.639032
64.85000, 3.204825
64.88000, 1.710426
64.91000, 5.530103
64.94000, 2.842109
64.97000, 2.1796999E-02
65.00000, 0.5681400
65.03000, 2.806793
65.06000, 3.098431
65.09000, 0.0000000E+00
##END=



