##NAMES=Zinc
##RRUFFID=R070497
##IDEAL CHEMISTRY=Zn
##LOCALITY=Round Mountain area, Shasta County, California, USA
##OWNER=RRUFF
##SOURCE=James Shigley
##DESCRIPTION=Grey, metallic crystal with irregular, platy structure 
##DIFFRACTION SAMPLE DESCRIPTION=Powder, using Mo radiation
##STATUS=The identification of this mineral has been confirmed by X-ray diffraction.
##URL=rruff.info/R070497
##CELL PARAMETERS=a: 2.6701(2) b: 2.6701(2) c: 4.955(1) alpha: 90 beta: 90 gamma: 120 volume: 30.596(8) crystal system: hexagonal
5.360000, 0.0000000E+00
5.390000, 4.280044
5.420000, 4.3120001E-02
5.450000, 6.844025
5.480000, 4.684469
5.510000, 0.3142150
5.540000, 5.793935
5.570000, 14.85295
5.600000, 13.92639
5.630000, 19.04769
5.660000, 24.95299
5.690000, 21.50742
5.720000, 18.25240
5.750000, 9.232328
5.780000, 4.630131
5.810000, 2.726075
5.840000, 1.665092
5.870000, 2.288815
5.900000, 2.949247
5.930000, 7.991142
5.960000, 11.72141
5.990000, 9.516690
6.020000, 5.952837
6.050000, 2.005718
6.080000, 1.826659
6.110000, 5.602448
6.140000, 5.922866
6.170000, 11.72185
6.200000, 20.75809
6.230000, 23.41614
6.260000, 21.33332
6.290000, 17.88352
6.320000, 14.10035
6.350000, 15.43980
6.380000, 18.26717
6.410000, 18.61518
6.440000, 21.61935
6.470000, 19.10017
6.500000, 13.08342
6.530000, 11.44582
6.560000, 12.76689
6.590000, 10.69863
6.620000, 13.11067
6.650000, 16.54859
6.680000, 20.33234
6.710000, 15.64318
6.740000, 10.26910
6.770000, 13.99148
6.800000, 13.92416
6.830000, 13.98056
6.860000, 12.31786
6.890000, 10.34044
6.920000, 6.804807
6.950000, 6.435385
6.980000, 7.735149
7.010000, 9.483474
7.040000, 10.46968
7.070000, 11.55204
7.100000, 12.78708
7.130000, 13.20343
7.160000, 12.07739
7.190000, 12.56522
7.220000, 10.01748
7.250000, 11.33146
7.280000, 3.973520
7.310000, 1.615095
7.340000, 2.985065
7.370000, 0.7708580
7.400000, 1.148166
7.430000, 1.205408
7.460000, 8.637502
7.490000, 8.471242
7.520000, 12.71246
7.550000, 16.25275
7.580000, 14.23899
7.610000, 16.63346
7.640000, 10.10500
7.670000, 15.10626
7.700000, 15.43338
7.730000, 11.58348
7.760000, 12.90921
7.790000, 9.655669
7.820000, 4.534762
7.850000, 1.574649
7.880000, 6.044380
7.910000, 11.24944
7.940000, 10.01140
7.970000, 5.625510
8.000000, 6.819541
8.030000, 10.40441
8.060000, 9.947138
8.090000, 16.55095
8.120000, 21.22255
8.150000, 23.72358
8.180000, 29.07918
8.210000, 33.33488
8.240000, 34.28742
8.270000, 30.79131
8.300000, 27.06054
8.330000, 23.72144
8.360000, 26.17162
8.390000, 28.95804
8.420000, 30.50545
8.450000, 28.73426
8.480000, 18.93052
8.510000, 16.58546
8.540000, 19.24721
8.570000, 19.44503
8.600000, 19.23223
8.630000, 18.22567
8.660000, 22.84149
8.690000, 27.02622
8.720000, 26.71320
8.750000, 25.21132
8.780000, 26.78821
8.810000, 20.03531
8.840000, 26.57810
8.870000, 24.21070
8.900000, 24.03575
8.930000, 30.48045
8.960000, 34.80965
8.990000, 40.68643
9.020000, 37.18262
9.050000, 26.56806
9.080000, 20.01249
9.110000, 16.39088
9.140000, 13.43713
9.170000, 14.18453
9.200000, 20.40566
9.230000, 17.03856
9.260000, 24.77508
9.290000, 16.85585
9.320000, 17.22212
9.350000, 19.31917
9.380000, 20.94283
9.410000, 20.06440
9.440000, 22.08333
9.470000, 18.42636
9.500000, 17.09137
9.530000, 16.60631
9.560000, 19.05199
9.590000, 23.29054
9.620000, 30.53555
9.650000, 39.66732
9.680000, 47.67773
9.710000, 54.67471
9.740000, 59.27497
9.770000, 58.89984
9.800000, 61.50687
9.830000, 63.23806
9.860000, 69.05139
9.890000, 71.88148
9.920000, 72.46893
9.950000, 73.97304
9.980000, 73.46255
10.01000, 72.63065
10.04000, 71.33784
10.07000, 71.12997
10.10000, 70.09863
10.13000, 67.83157
10.16000, 62.02428
10.19000, 59.58093
10.22000, 53.41141
10.25000, 51.43247
10.28000, 46.98936
10.31000, 44.08242
10.34000, 39.52132
10.37000, 32.22553
10.40000, 28.14916
10.43000, 25.01357
10.46000, 25.66018
10.49000, 22.92371
10.52000, 18.55713
10.55000, 16.11880
10.58000, 13.09710
10.61000, 12.45606
10.64000, 12.24973
10.67000, 10.51999
10.70000, 9.513893
10.73000, 6.002586
10.76000, 4.273854
10.79000, 7.400819
10.82000, 9.993403
10.85000, 8.572650
10.88000, 11.80856
10.91000, 11.53114
10.94000, 7.481038
10.97000, 5.028638
11.00000, 3.683323
11.03000, 3.042430
11.06000, 1.5142000E-02
11.09000, 1.889365
11.12000, 7.830187
11.15000, 6.068552
11.18000, 3.027411
11.21000, 7.619615
11.24000, 6.118835
11.27000, 1.889467
11.30000, 1.295848
11.33000, 0.4468850
11.36000, 4.294143
11.39000, 1.231820
11.42000, 0.7218830
11.45000, 0.2172530
11.48000, 0.3823920
11.51000, 1.257515
11.54000, 2.684415
11.57000, 7.269044
11.60000, 0.6823050
11.63000, 0.7556240
11.66000, 0.3367670
11.69000, 1.002600
11.72000, 2.031920
11.75000, 1.170967
11.78000, 2.161803
11.81000, 7.962248
11.84000, 8.892261
11.87000, 5.522041
11.90000, 2.211495
11.93000, 2.192816
11.96000, 2.141855
11.99000, 0.2029040
12.02000, 0.8076610
12.05000, 1.889946
12.08000, 3.254131
12.11000, 10.26051
12.14000, 17.88394
12.17000, 21.61027
12.20000, 23.58242
12.23000, 22.16939
12.26000, 19.20330
12.29000, 16.37505
12.32000, 9.951686
12.35000, 2.138287
12.38000, 0.1878420
12.41000, 0.6888680
12.44000, 4.370114
12.47000, 10.98587
12.50000, 10.18716
12.53000, 9.133514
12.56000, 1.831596
12.59000, 1.383592
12.62000, 0.8824910
12.65000, 1.132886
12.68000, 2.353582
12.71000, 5.182163
12.74000, 3.692693
12.77000, 3.795257
12.80000, 3.946942
12.83000, 0.3185230
12.86000, 0.9650650
12.89000, 1.074148
12.92000, 1.211781
12.95000, 0.5631500
12.98000, 1.039611
13.01000, 0.2823340
13.04000, 0.4598440
13.07000, 0.7288110
13.10000, 0.7161120
13.13000, 0.3779430
13.16000, 0.6998550
13.19000, 9.1063000E-02
13.22000, 1.157377
13.25000, 1.134433
13.28000, 0.8177530
13.31000, 1.082412
13.34000, 1.598190
13.37000, 2.396615
13.40000, 3.580192
13.43000, 0.8477150
13.46000, 0.7597340
13.49000, 1.834498
13.52000, 1.894362
13.55000, 2.463682
13.58000, 5.209761
13.61000, 2.135018
13.64000, 1.786671
13.67000, 0.6394870
13.70000, 1.027843
13.73000, 1.932295
13.76000, 1.662474
13.79000, 1.683840
13.82000, 2.758146
13.85000, 3.232223
13.88000, 1.959464
13.91000, 1.603810
13.94000, 0.1143580
13.97000, 1.701173
14.00000, 0.2916660
14.03000, 1.184325
14.06000, 1.645469
14.09000, 0.6083280
14.12000, 1.525548
14.15000, 7.778697
14.18000, 13.50298
14.21000, 16.61437
14.24000, 17.46404
14.27000, 19.57283
14.30000, 21.90185
14.33000, 20.83014
14.36000, 20.92361
14.39000, 20.89321
14.42000, 21.14720
14.45000, 17.81430
14.48000, 15.54663
14.51000, 14.74334
14.54000, 13.95466
14.57000, 17.09571
14.60000, 16.70560
14.63000, 12.98626
14.66000, 6.570166
14.69000, 2.840103
14.72000, 2.342396
14.75000, 0.5928870
14.78000, 3.128184
14.81000, 0.8962380
14.84000, 1.567291
14.87000, 2.059376
14.90000, 2.026155
14.93000, 0.7014570
14.96000, 1.564364
14.99000, 1.861787
15.02000, 1.504610
15.05000, 0.9536440
15.08000, 0.5663880
15.11000, 1.829899
15.14000, 2.425486
15.17000, 3.505741
15.20000, 4.345506
15.23000, 5.699945
15.26000, 5.925653
15.29000, 6.430884
15.32000, 6.895977
15.35000, 7.467954
15.38000, 8.744445
15.41000, 9.216276
15.44000, 9.911773
15.47000, 12.03716
15.50000, 12.49809
15.53000, 12.56069
15.56000, 14.43387
15.59000, 14.62335
15.62000, 16.15840
15.65000, 16.01268
15.68000, 19.56036
15.71000, 20.72859
15.74000, 23.35159
15.77000, 20.32652
15.80000, 14.10705
15.83000, 11.70929
15.86000, 10.75020
15.89000, 9.487933
15.92000, 8.612973
15.95000, 8.577015
15.98000, 10.03864
16.01000, 8.290743
16.04000, 10.27902
16.07000, 17.29810
16.10000, 23.20997
16.13000, 35.97846
16.16000, 54.08378
16.19000, 77.27270
16.22000, 118.9550
16.25000, 179.8027
16.28000, 262.0891
16.31000, 365.9122
16.34000, 492.0062
16.37000, 642.5030
16.40000, 794.7808
16.43000, 948.7511
16.46000, 1064.032
16.49000, 1149.205
16.52000, 1186.099
16.55000, 1176.156
16.58000, 1117.179
16.61000, 1021.045
16.64000, 894.6270
16.67000, 758.0135
16.70000, 607.9670
16.73000, 483.9793
16.76000, 366.5000
16.79000, 275.9354
16.82000, 207.0852
16.85000, 150.9856
16.88000, 110.6717
16.91000, 81.92452
16.94000, 65.11206
16.97000, 49.65355
17.00000, 39.87092
17.03000, 35.51337
17.06000, 32.50003
17.09000, 29.45537
17.12000, 30.06922
17.15000, 32.30956
17.18000, 32.76180
17.21000, 33.07311
17.24000, 33.84853
17.27000, 41.61679
17.30000, 56.96278
17.33000, 78.19329
17.36000, 106.9050
17.39000, 148.6187
17.42000, 204.6282
17.45000, 286.2137
17.48000, 384.9372
17.51000, 514.3628
17.54000, 654.5253
17.57000, 820.6762
17.60000, 979.8677
17.63000, 1118.908
17.66000, 1240.478
17.69000, 1309.764
17.72000, 1332.965
17.75000, 1303.496
17.78000, 1223.529
17.81000, 1117.581
17.84000, 966.8261
17.87000, 799.1019
17.90000, 644.3085
17.93000, 491.5963
17.96000, 371.9764
17.99000, 270.1053
18.02000, 197.9005
18.05000, 150.2728
18.08000, 113.1291
18.11000, 82.06445
18.14000, 65.26316
18.17000, 54.74522
18.20000, 49.34677
18.23000, 46.62284
18.26000, 41.69108
18.29000, 37.46603
18.32000, 35.78932
18.35000, 34.64897
18.38000, 34.24292
18.41000, 31.62944
18.44000, 25.31040
18.47000, 19.09401
18.50000, 20.93288
18.53000, 26.53777
18.56000, 30.71122
18.59000, 35.35008
18.62000, 36.32781
18.65000, 31.14321
18.68000, 29.04008
18.71000, 26.13836
18.74000, 25.40574
18.77000, 23.78713
18.80000, 26.70449
18.83000, 27.48309
18.86000, 31.52349
18.89000, 33.37373
18.92000, 35.65201
18.95000, 37.28395
18.98000, 41.37776
19.01000, 50.64131
19.04000, 56.80822
19.07000, 61.65171
19.10000, 78.01630
19.13000, 109.1450
19.16000, 158.9923
19.19000, 242.6753
19.22000, 374.5480
19.25000, 558.6093
19.28000, 822.7144
19.31000, 1157.065
19.34000, 1573.268
19.37000, 2041.547
19.40000, 2551.693
19.43000, 3087.875
19.46000, 3576.174
19.49000, 4030.525
19.52000, 4307.649
19.55000, 4499.023
19.58000, 4514.846
19.61000, 4362.408
19.64000, 4058.288
19.67000, 3636.522
19.70000, 3115.597
19.73000, 2611.845
19.76000, 2064.362
19.79000, 1613.922
19.82000, 1195.961
19.85000, 872.2726
19.88000, 620.5411
19.91000, 437.3401
19.94000, 320.6312
19.97000, 234.6748
20.00000, 182.3036
20.03000, 149.6671
20.06000, 132.7302
20.09000, 117.3929
20.12000, 104.4333
20.15000, 93.23061
20.18000, 81.95312
20.21000, 76.45225
20.24000, 72.00900
20.27000, 67.78526
20.30000, 64.17730
20.33000, 61.20728
20.36000, 56.69112
20.39000, 52.46379
20.42000, 50.14126
20.45000, 50.35159
20.48000, 51.06633
20.51000, 51.06276
20.54000, 50.66333
20.57000, 45.34905
20.60000, 40.55698
20.63000, 40.80691
20.66000, 39.84293
20.69000, 39.91768
20.72000, 38.98542
20.75000, 36.71625
20.78000, 35.26629
20.81000, 34.81535
20.84000, 30.71120
20.87000, 27.06008
20.90000, 26.98065
20.93000, 26.08316
20.96000, 22.85671
20.99000, 18.76175
21.02000, 14.68573
21.05000, 8.946842
21.08000, 6.257845
21.11000, 6.414764
21.14000, 4.304769
21.17000, 5.423498
21.20000, 4.958708
21.23000, 3.692657
21.26000, 5.371995
21.29000, 6.655500
21.32000, 5.561925
21.35000, 7.742097
21.38000, 10.05527
21.41000, 9.216015
21.44000, 6.200190
21.47000, 6.758844
21.50000, 7.238402
21.53000, 8.767802
21.56000, 8.157953
21.59000, 5.496880
21.62000, 5.259601
21.65000, 3.332104
21.68000, 1.372284
21.71000, 0.1122540
21.74000, 2.091827
21.77000, 2.224268
21.80000, 1.866265
21.83000, 0.6254770
21.86000, 0.7907160
21.89000, 0.3782980
21.92000, 2.602092
21.95000, 1.120273
21.98000, 0.9481940
22.01000, 3.492511
22.04000, 4.683753
22.07000, 1.164140
22.10000, 2.218945
22.13000, 0.2231890
22.16000, 0.4578080
22.19000, 0.4102720
22.22000, 2.124998
22.25000, 3.751312
22.28000, 2.746480
22.31000, 4.189359
22.34000, 0.6384170
22.37000, 1.023109
22.40000, 2.357985
22.43000, 0.4434270
22.46000, 2.465698
22.49000, 1.617236
22.52000, 1.164009
22.55000, 2.569168
22.58000, 0.6198490
22.61000, 1.096425
22.64000, 0.5593900
22.67000, 2.452782
22.70000, 2.303307
22.73000, 6.155368
22.76000, 3.822762
22.79000, 4.458620
22.82000, 3.752823
22.85000, 0.8060130
22.88000, 1.877722
22.91000, 0.8567400
22.94000, 0.1007430
22.97000, 2.025222
23.00000, 1.203636
23.03000, 0.4940050
23.06000, 0.9770740
23.09000, 0.3399700
23.12000, 0.1243560
23.15000, 0.9374970
23.18000, 0.4955060
23.21000, 3.255589
23.24000, 6.830875
23.27000, 9.561381
23.30000, 8.665085
23.33000, 7.884830
23.36000, 6.459582
23.39000, 7.508354
23.42000, 7.155167
23.45000, 3.886954
23.48000, 2.506758
23.51000, 3.285455
23.54000, 3.069967
23.57000, 4.086027
23.60000, 5.144866
23.63000, 6.083915
23.66000, 8.060551
23.69000, 8.683337
23.72000, 9.863525
23.75000, 11.02765
23.78000, 14.42779
23.81000, 19.27573
23.84000, 23.21473
23.87000, 27.72451
23.90000, 32.75338
23.93000, 45.22001
23.96000, 70.72552
23.99000, 99.90496
24.02000, 138.7583
24.05000, 192.5325
24.08000, 261.5405
24.11000, 334.3124
24.14000, 413.1873
24.17000, 498.4300
24.20000, 568.8184
24.23000, 628.3784
24.26000, 666.1153
24.29000, 679.9220
24.32000, 676.4857
24.35000, 650.4603
24.38000, 603.2015
24.41000, 540.5087
24.44000, 471.1781
24.47000, 396.7217
24.50000, 323.5122
24.53000, 257.7893
24.56000, 199.0253
24.59000, 147.6940
24.62000, 106.6116
24.65000, 79.22761
24.68000, 58.29854
24.71000, 40.35623
24.74000, 30.10204
24.77000, 24.12414
24.80000, 23.57891
24.83000, 25.46742
24.86000, 24.49778
24.89000, 21.09063
24.92000, 18.82192
24.95000, 15.76212
24.98000, 14.15752
25.01000, 14.70798
25.04000, 16.25051
25.07000, 16.60641
25.10000, 17.44604
25.13000, 17.73689
25.16000, 18.18097
25.19000, 18.13255
25.22000, 18.80760
25.25000, 19.42142
25.28000, 19.58776
25.31000, 17.84022
25.34000, 17.87581
25.37000, 16.20773
25.40000, 16.20026
25.43000, 15.70344
25.46000, 15.00508
25.49000, 15.86749
25.52000, 15.33840
25.55000, 14.40798
25.58000, 17.72416
25.61000, 20.13573
25.64000, 18.17383
25.67000, 14.73870
25.70000, 9.130514
25.73000, 7.915560
25.76000, 6.319860
25.79000, 6.522725
25.82000, 7.101723
25.85000, 4.761594
25.88000, 2.657728
25.91000, 4.076017
25.94000, 5.556374
25.97000, 8.194129
26.00000, 9.099168
26.03000, 8.296871
26.06000, 5.756858
26.09000, 2.333600
26.12000, 3.631298
26.15000, 3.379533
26.18000, 0.2392120
26.21000, 4.3304998E-02
26.24000, 2.752152
26.27000, 1.559074
26.30000, 5.741629
26.33000, 6.011021
26.36000, 3.854614
26.39000, 3.242136
26.42000, 2.801577
26.45000, 1.534646
26.48000, 0.5365220
26.51000, 0.8264440
26.54000, 0.2084520
26.57000, 2.729878
26.60000, 7.2526000E-02
26.63000, 0.6687540
26.66000, 0.7089640
26.69000, 0.6903430
26.72000, 0.5951220
26.75000, 5.8789998E-03
26.78000, 1.016461
26.81000, 0.7693240
26.84000, 0.8559580
26.87000, 0.1091940
26.90000, 1.737988
26.93000, 6.529934
26.96000, 7.946461
26.99000, 7.655982
27.02000, 6.367279
27.05000, 6.069262
27.08000, 4.213381
27.11000, 3.006956
27.14000, 0.8705810
27.17000, 0.3131980
27.20000, 1.319998
27.23000, 0.7714630
27.26000, 0.7767560
27.29000, 4.048781
27.32000, 8.035126
27.35000, 9.662317
27.38000, 10.67290
27.41000, 6.086520
27.44000, 8.912654
27.47000, 7.702932
27.50000, 5.218584
27.53000, 8.347425
27.56000, 14.64464
27.59000, 15.06916
27.62000, 15.84795
27.65000, 17.78907
27.68000, 13.20660
27.71000, 9.109344
27.74000, 5.487590
27.77000, 1.358135
27.80000, 0.4849610
27.83000, 1.452018
27.86000, 0.9409420
27.89000, 1.014906
27.92000, 0.2471690
27.95000, 1.406759
27.98000, 0.4142540
28.01000, 0.3162070
28.04000, 4.294948
28.07000, 9.624665
28.10000, 10.82474
28.13000, 7.992331
28.16000, 2.358284
28.19000, 2.197870
28.22000, 2.002787
28.25000, 2.024319
28.28000, 2.013564
28.31000, 0.8462460
28.34000, 2.040267
28.37000, 2.359286
28.40000, 2.101838
28.43000, 5.018964
28.46000, 1.739631
28.49000, 0.7150150
28.52000, 2.162948
28.55000, 0.5185550
28.58000, 1.435402
28.61000, 0.6103500
28.64000, 0.1137780
28.67000, 4.292847
28.70000, 5.993366
28.73000, 5.116703
28.76000, 2.948565
28.79000, 3.779238
28.82000, 2.855550
28.85000, 2.432628
28.88000, 0.7216400
28.91000, 1.421291
28.94000, 1.498634
28.97000, 0.1547910
29.00000, 1.052939
29.03000, 0.3334240
29.06000, 1.519706
29.09000, 3.400763
29.12000, 3.159635
29.15000, 5.116314
29.18000, 4.698188
29.21000, 5.929772
29.24000, 3.608193
29.27000, 2.285511
29.30000, 0.7596430
29.33000, 2.334759
29.36000, 3.606784
29.39000, 0.1176100
29.42000, 0.3150700
29.45000, 5.120809
29.48000, 7.102942
29.51000, 10.13446
29.54000, 12.42960
29.57000, 9.877172
29.60000, 6.823590
29.63000, 9.362988
29.66000, 8.798313
29.69000, 8.491602
29.72000, 9.720442
29.75000, 11.49915
29.78000, 13.60960
29.81000, 14.93241
29.84000, 14.24749
29.87000, 10.49921
29.90000, 7.963231
29.93000, 7.376447
29.96000, 8.470654
29.99000, 12.53275
30.02000, 15.44436
30.05000, 18.09033
30.08000, 22.04385
30.11000, 20.52323
30.14000, 20.01570
30.17000, 27.78317
30.20000, 33.48844
30.23000, 35.75652
30.26000, 42.01525
30.29000, 52.53548
30.32000, 70.98962
30.35000, 95.80737
30.38000, 135.7617
30.41000, 189.1096
30.44000, 248.5066
30.47000, 326.8576
30.50000, 412.6321
30.53000, 506.4624
30.56000, 602.1817
30.59000, 712.9955
30.62000, 818.6971
30.65000, 917.2193
30.68000, 1029.723
30.71000, 1113.847
30.74000, 1171.114
30.77000, 1212.971
30.80000, 1209.484
30.83000, 1197.375
30.86000, 1168.143
30.89000, 1121.790
30.92000, 1050.383
30.95000, 952.2842
30.98000, 855.5059
31.01000, 752.5081
31.04000, 638.9808
31.07000, 547.6337
31.10000, 450.3872
31.13000, 372.4630
31.16000, 288.9084
31.19000, 224.4745
31.22000, 174.9448
31.25000, 133.1957
31.28000, 103.4408
31.31000, 76.47128
31.34000, 59.63831
31.37000, 49.64498
31.40000, 41.21050
31.43000, 34.82345
31.46000, 33.00889
31.49000, 34.16680
31.52000, 33.10646
31.55000, 30.47853
31.58000, 27.41526
31.61000, 24.64395
31.64000, 19.43289
31.67000, 14.98155
31.70000, 13.51272
31.73000, 12.39769
31.76000, 12.19523
31.79000, 12.71142
31.82000, 12.92230
31.85000, 14.57701
31.88000, 18.01912
31.91000, 16.78748
31.94000, 17.15187
31.97000, 17.31007
32.00000, 14.39893
32.03000, 12.00658
32.06000, 12.55293
32.09000, 12.63536
32.12000, 11.19348
32.15000, 8.643828
32.18000, 7.808544
32.21000, 5.462618
32.24000, 5.238996
32.27000, 9.362994
32.30000, 14.41895
32.33000, 15.62067
32.36000, 16.92042
32.39000, 13.77390
32.42000, 7.887340
32.45000, 5.775641
32.48000, 3.827232
32.51000, 1.941215
32.54000, 3.017133
32.57000, 6.023138
32.60000, 4.654813
32.63000, 6.204978
32.66000, 7.947532
32.69000, 4.234044
32.72000, 2.188423
32.75000, 7.046748
32.78000, 8.226985
32.81000, 6.654132
32.84000, 4.796198
32.87000, 3.729114
32.90000, 0.7180130
32.93000, 0.7591360
32.96000, 2.7114000E-02
32.99000, 1.432266
33.02000, 5.707371
33.05000, 7.855410
33.08000, 14.91303
33.11000, 17.75751
33.14000, 31.36741
33.17000, 44.12021
33.20000, 55.55789
33.23000, 63.61450
33.26000, 71.18399
33.29000, 75.86575
33.32000, 73.50488
33.35000, 78.47517
33.38000, 77.51903
33.41000, 71.45918
33.44000, 69.44039
33.47000, 62.62951
33.50000, 53.57950
33.53000, 49.26638
33.56000, 48.40810
33.59000, 48.69979
33.62000, 39.63639
33.65000, 30.36794
33.68000, 23.32096
33.71000, 17.71497
33.74000, 12.98802
33.77000, 9.301977
33.80000, 7.566045
33.83000, 3.791008
33.86000, 2.515859
33.89000, 0.3804280
33.92000, 2.860094
33.95000, 7.7999998E-03
33.98000, 2.8406000E-02
34.01000, 0.7056370
34.04000, 0.2697890
34.07000, 2.561227
34.10000, 1.9384000E-02
34.13000, 1.419981
34.16000, 1.151707
34.19000, 2.392230
34.22000, 2.286859
34.25000, 2.917322
34.28000, 1.481158
34.31000, 1.635177
34.34000, 2.306777
34.37000, 1.9049000E-02
34.40000, 0.8219880
34.43000, 0.7194860
34.46000, 0.1274950
34.49000, 2.438735
34.52000, 2.655730
34.55000, 5.477017
34.58000, 8.330306
34.61000, 5.323263
34.64000, 1.722190
34.67000, 3.645013
34.70000, 7.039656
34.73000, 13.47013
34.76000, 22.25648
34.79000, 29.49064
34.82000, 42.59166
34.85000, 62.89095
34.88000, 87.01155
34.91000, 124.0689
34.94000, 170.1631
34.97000, 228.8392
35.00000, 296.4152
35.03000, 364.3278
35.06000, 431.2626
35.09000, 492.6892
35.12000, 541.6269
35.15000, 576.3550
35.18000, 592.2444
35.21000, 592.7649
35.24000, 581.3962
35.27000, 565.5788
35.30000, 536.7536
35.33000, 497.2297
35.36000, 459.4075
35.39000, 410.2968
35.42000, 361.5212
35.45000, 310.9522
35.48000, 262.4723
35.51000, 220.7325
35.54000, 180.3251
35.57000, 159.0754
35.60000, 144.5006
35.63000, 132.6644
35.66000, 136.9690
35.69000, 141.4070
35.72000, 141.4731
35.75000, 141.5764
35.78000, 142.4682
35.81000, 135.3397
35.84000, 129.0740
35.87000, 120.8849
35.90000, 119.0725
35.93000, 115.1709
35.96000, 104.7937
35.99000, 98.45151
36.02000, 88.50580
36.05000, 79.70178
36.08000, 66.26764
36.11000, 56.74010
36.14000, 48.35028
36.17000, 40.54012
36.20000, 36.81258
36.23000, 35.19477
36.26000, 32.71367
36.29000, 32.87208
36.32000, 34.39017
36.35000, 33.62686
36.38000, 39.03718
36.41000, 50.03203
36.44000, 59.93750
36.47000, 80.75556
36.50000, 111.2602
36.53000, 145.2146
36.56000, 193.0649
36.59000, 247.3371
36.62000, 311.8630
36.65000, 374.7984
36.68000, 430.0884
36.71000, 475.4758
36.74000, 509.6438
36.77000, 524.7626
36.80000, 523.3016
36.83000, 516.6111
36.86000, 500.1914
36.89000, 476.8822
36.92000, 452.5735
36.95000, 421.0350
36.98000, 379.6923
37.01000, 341.0079
37.04000, 297.6361
37.07000, 248.7917
37.10000, 201.4858
37.13000, 155.4604
37.16000, 117.8504
37.19000, 86.07687
37.22000, 64.71081
37.25000, 49.51018
37.28000, 39.21346
37.31000, 27.32769
37.34000, 22.43356
37.37000, 19.11225
37.40000, 19.39156
37.43000, 20.87128
37.46000, 21.53127
37.49000, 22.81067
37.52000, 21.44928
37.55000, 20.11357
37.58000, 16.97096
37.61000, 14.77072
37.64000, 18.96210
37.67000, 20.76640
37.70000, 27.95409
37.73000, 31.64294
37.76000, 40.31723
37.79000, 47.76603
37.82000, 57.38026
37.85000, 65.27206
37.88000, 68.24355
37.91000, 67.39984
37.94000, 64.72513
37.97000, 65.66872
38.00000, 68.73622
38.03000, 71.10412
38.06000, 68.62978
38.09000, 63.37881
38.12000, 58.28756
38.15000, 51.87758
38.18000, 44.27661
38.21000, 38.96843
38.24000, 35.86576
38.27000, 32.93825
38.30000, 30.27750
38.33000, 25.00080
38.36000, 14.36881
38.39000, 3.282636
38.42000, 1.855159
38.45000, 2.839895
38.48000, 0.2063550
38.51000, 2.810811
38.54000, 5.965174
38.57000, 5.037549
38.60000, 3.029883
38.63000, 4.941327
38.66000, 3.169146
38.69000, 2.571315
38.72000, 4.624517
38.75000, 3.126547
38.78000, 3.104557
38.81000, 4.174516
38.84000, 6.088174
38.87000, 6.458357
38.90000, 5.230599
38.93000, 7.476964
38.96000, 5.904531
38.99000, 1.278831
39.02000, 1.450325
39.05000, 0.7159230
39.08000, 1.899492
39.11000, 2.518091
39.14000, 2.324826
39.17000, 1.752220
39.20000, 3.035317
39.23000, 5.995223
39.26000, 8.759810
39.29000, 10.77408
39.32000, 16.56238
39.35000, 25.39394
39.38000, 33.87149
39.41000, 45.40443
39.44000, 59.44609
39.47000, 72.06834
39.50000, 87.48929
39.53000, 100.1209
39.56000, 104.2040
39.59000, 110.9788
39.62000, 114.8093
39.65000, 112.7253
39.68000, 107.5990
39.71000, 101.4033
39.74000, 93.97517
39.77000, 86.46658
39.80000, 80.89233
39.83000, 76.37630
39.86000, 75.68386
39.89000, 70.13792
39.92000, 60.21364
39.95000, 49.00688
39.98000, 39.75470
40.01000, 32.87699
40.04000, 32.57090
40.07000, 26.79634
40.10000, 20.53835
40.13000, 12.59013
40.16000, 7.772473
40.19000, 4.501288
40.22000, 3.331656
40.25000, 2.317942
40.28000, 6.892032
40.31000, 7.227433
40.34000, 7.694616
40.37000, 9.842800
40.40000, 6.782228
40.43000, 6.517636
40.46000, 4.224498
40.49000, 3.363559
40.52000, 5.840103
40.55000, 6.323077
40.58000, 6.962442
40.61000, 7.481342
40.64000, 7.692706
40.67000, 5.808444
40.70000, 6.340156
40.73000, 5.229793
40.76000, 5.225524
40.79000, 3.321186
40.82000, 1.550103
40.85000, 7.4422002E-02
40.88000, 0.9953940
40.91000, 0.4891760
40.94000, 0.6166750
40.97000, 5.475530
41.00000, 5.959882
41.03000, 6.785555
41.06000, 7.333711
41.09000, 6.978312
41.12000, 6.617854
41.15000, 5.505562
41.18000, 4.362021
41.21000, 2.526537
41.24000, 5.466015
41.27000, 3.722502
41.30000, 8.159034
41.33000, 4.227594
41.36000, 6.432186
41.39000, 8.804873
41.42000, 7.912589
41.45000, 0.2164960
41.48000, 2.090051
41.51000, 3.953588
41.54000, 0.4320940
41.57000, 1.285876
41.60000, 0.4415400
41.63000, 0.7221020
41.66000, 0.3368630
41.69000, 0.5506370
41.72000, 0.4336750
41.75000, 1.476000
41.78000, 0.8155390
41.81000, 1.017148
41.84000, 1.191805
41.87000, 0.2058240
41.90000, 0.5250600
41.93000, 0.2378310
41.96000, 6.6347003E-02
41.99000, 0.9329920
42.02000, 1.092560
42.05000, 0.9239610
42.08000, 3.270549
42.11000, 5.880581
42.14000, 7.720915
42.17000, 4.315777
42.20000, 0.3208730
42.23000, 1.009122
42.26000, 2.671690
42.29000, 3.658552
42.32000, 5.810833
42.35000, 7.916558
42.38000, 3.244584
42.41000, 1.355536
42.44000, 1.415270
42.47000, 0.8147780
42.50000, 1.215057
42.53000, 1.373462
42.56000, 1.794645
42.59000, 3.333009
42.62000, 0.2670900
42.65000, 1.135955
42.68000, 1.772275
42.71000, 2.466515
42.74000, 5.749167
42.77000, 8.533257
42.80000, 8.978880
42.83000, 11.19296
42.86000, 7.215429
42.89000, 1.428544
42.92000, 0.4279470
42.95000, 0.8050990
42.98000, 3.296431
43.01000, 6.939560
43.04000, 6.358176
43.07000, 7.255280
43.10000, 9.569896
43.13000, 7.599886
43.16000, 7.866542
43.19000, 9.812619
43.22000, 8.927246
43.25000, 6.120569
43.28000, 5.532315
43.31000, 6.042672
43.34000, 5.933557
43.37000, 5.278204
43.40000, 5.138156
43.43000, 4.202591
43.46000, 3.925495
43.49000, 4.340011
43.52000, 7.635040
43.55000, 9.142374
43.58000, 12.25971
43.61000, 15.13038
43.64000, 20.32662
43.67000, 23.73230
43.70000, 28.53962
43.73000, 34.79246
43.76000, 42.50295
43.79000, 58.95950
43.82000, 81.58563
43.85000, 100.8706
43.88000, 121.2257
43.91000, 134.4334
43.94000, 141.7577
43.97000, 145.8571
44.00000, 149.4668
44.03000, 150.5958
44.06000, 146.9338
44.09000, 145.2384
44.12000, 138.3602
44.15000, 136.4973
44.18000, 122.8216
44.21000, 113.9595
44.24000, 107.3450
44.27000, 104.5389
44.30000, 100.6825
44.33000, 92.29971
44.36000, 84.72245
44.39000, 77.03384
44.42000, 61.01885
44.45000, 48.65488
44.48000, 36.35111
44.51000, 25.94662
44.54000, 21.06645
44.57000, 20.25555
44.60000, 18.78333
44.63000, 17.33585
44.66000, 17.42395
44.69000, 16.77078
44.72000, 15.20733
44.75000, 13.06927
44.78000, 10.99051
44.81000, 11.48365
44.84000, 14.58038
44.87000, 16.75974
44.90000, 19.30196
44.93000, 17.26276
44.96000, 11.59630
44.99000, 9.914569
45.02000, 10.48547
45.05000, 10.41143
45.08000, 10.82014
45.11000, 9.928788
45.14000, 8.794206
45.17000, 5.074462
45.20000, 6.486485
45.23000, 8.109941
45.26000, 5.908998
45.29000, 1.021533
45.32000, 4.6076000E-02
45.35000, 0.1247120
45.38000, 0.9894200
45.41000, 0.7850470
45.44000, 4.164529
45.47000, 4.155252
45.50000, 7.957311
45.53000, 8.324009
45.56000, 14.45370
45.59000, 17.33846
45.62000, 23.44286
45.65000, 34.57839
45.68000, 44.30979
45.71000, 51.79319
45.74000, 62.43772
45.77000, 77.61627
45.80000, 96.43484
45.83000, 112.4920
45.86000, 130.0499
45.89000, 145.9294
45.92000, 153.2900
45.95000, 159.7337
45.98000, 164.9461
46.01000, 165.2565
46.04000, 165.2912
46.07000, 162.7819
46.10000, 151.7018
46.13000, 141.4747
46.16000, 135.5970
46.19000, 124.1343
46.22000, 115.3821
46.25000, 108.1351
46.28000, 99.05217
46.31000, 89.60168
46.34000, 80.40634
46.37000, 66.08949
46.40000, 55.31290
46.43000, 43.63159
46.46000, 39.61364
46.49000, 33.33966
46.52000, 24.24456
46.55000, 18.54433
46.58000, 15.02869
46.61000, 11.47958
46.64000, 12.06777
46.67000, 11.60320
46.70000, 9.706176
46.73000, 8.494486
46.76000, 7.421081
46.79000, 5.875232
46.82000, 5.061654
46.85000, 5.035594
46.88000, 3.959887
46.91000, 1.030639
46.94000, 2.417007
46.97000, 2.206540
47.00000, 0.7732340
47.03000, 4.880913
47.06000, 5.727216
47.09000, 4.108837
47.12000, 5.882950
47.15000, 7.003538
47.18000, 2.497518
47.21000, 3.855978
47.24000, 7.243955
47.27000, 5.700339
47.30000, 2.505272
47.33000, 1.374639
47.36000, 2.5350000E-03
47.39000, 1.390823
47.42000, 1.156099
47.45000, 2.728110
47.48000, 0.1073780
47.51000, 7.5627998E-02
47.54000, 2.798841
47.57000, 1.132210
47.60000, 2.858624
47.63000, 2.231367
47.66000, 6.190383
47.69000, 17.04565
47.72000, 28.00248
47.75000, 34.21887
47.78000, 38.67183
47.81000, 44.35133
47.84000, 48.67140
47.87000, 52.14912
47.90000, 52.18938
47.93000, 50.10429
47.96000, 44.60775
47.99000, 40.96681
48.02000, 35.57561
48.05000, 34.14008
48.08000, 36.64618
48.11000, 35.39388
48.14000, 36.53722
48.17000, 38.10621
48.20000, 41.53086
48.23000, 42.59218
48.26000, 37.31812
48.29000, 33.68072
48.32000, 35.34391
48.35000, 33.82801
48.38000, 36.55567
48.41000, 43.54902
48.44000, 54.77994
48.47000, 71.09660
48.50000, 98.06780
48.53000, 124.6409
48.56000, 148.0656
48.59000, 173.9830
48.62000, 192.7301
48.65000, 211.1911
48.68000, 218.8345
48.71000, 217.1054
48.74000, 211.0639
48.77000, 193.7053
48.80000, 184.3155
48.83000, 182.4719
48.86000, 173.7321
48.89000, 166.5035
48.92000, 160.8927
48.95000, 156.9650
48.98000, 150.5856
49.01000, 141.6004
49.04000, 128.6838
49.07000, 116.5415
49.10000, 102.3595
49.13000, 81.79723
49.16000, 70.70913
49.19000, 53.90695
49.22000, 36.12650
49.25000, 23.41174
49.28000, 20.45770
49.31000, 14.12432
49.34000, 9.614703
49.37000, 14.62479
49.40000, 15.88574
49.43000, 17.35603
49.46000, 19.97197
49.49000, 23.56300
49.52000, 23.96176
49.55000, 27.18369
49.58000, 32.80917
49.61000, 31.94703
49.64000, 32.11947
49.67000, 34.44001
49.70000, 29.75017
49.73000, 29.61568
49.76000, 26.48933
49.79000, 24.08730
49.82000, 24.69688
49.85000, 20.11633
49.88000, 19.09220
49.91000, 19.14379
49.94000, 18.70413
49.97000, 18.95189
50.00000, 13.15839
50.03000, 9.271495
50.06000, 9.933207
50.09000, 9.196575
50.12000, 8.504209
50.15000, 9.587958
50.18000, 9.808208
50.21000, 8.673689
50.24000, 7.948269
50.27000, 6.551966
50.30000, 4.860898
50.33000, 4.104429
50.36000, 3.020476
50.39000, 7.2232999E-02
50.42000, 1.673419
50.45000, 5.426247
50.48000, 9.721707
50.51000, 7.694748
50.54000, 7.210494
50.57000, 9.215454
50.60000, 11.64759
50.63000, 9.955145
50.66000, 11.10455
50.69000, 15.45651
50.72000, 19.05014
50.75000, 29.15849
50.78000, 35.83840
50.81000, 38.03197
50.84000, 41.79226
50.87000, 51.75112
50.90000, 59.42567
50.93000, 64.84299
50.96000, 65.88219
50.99000, 66.57513
51.02000, 61.34172
51.05000, 58.75812
51.08000, 52.96224
51.11000, 41.90011
51.14000, 43.59411
51.17000, 43.92297
51.20000, 48.36273
51.23000, 48.28401
51.26000, 45.58881
51.29000, 44.80725
51.32000, 38.36543
51.35000, 31.56845
51.38000, 24.09199
51.41000, 21.36576
51.44000, 18.74353
51.47000, 16.56903
51.50000, 11.73351
51.53000, 6.117681
51.56000, 4.145774
51.59000, 2.248545
51.62000, 3.131068
51.65000, 6.062694
51.68000, 5.036097
51.71000, 8.201178
51.74000, 12.61531
51.77000, 12.45323
51.80000, 9.675871
51.83000, 8.255454
51.86000, 1.155736
51.89000, 1.606488
51.92000, 0.7341540
51.95000, 0.8651130
51.98000, 2.260502
52.01000, 0.4266370
52.04000, 0.7726060
52.07000, 3.081186
52.10000, 4.863485
52.13000, 7.441554
52.16000, 9.000483
52.19000, 9.291353
52.22000, 8.589132
52.25000, 7.325598
52.28000, 6.986768
52.31000, 6.672561
52.34000, 7.852944
52.37000, 6.188078
52.40000, 0.6127740
52.43000, 0.1703320
52.46000, 1.281171
52.49000, 2.320543
52.52000, 0.7173420
52.55000, 1.507389
52.58000, 2.689417
52.61000, 2.595034
52.64000, 0.1071730
52.67000, 2.269218
52.70000, 1.495456
52.73000, 2.332000
52.76000, 0.9029490
52.79000, 9.7562000E-02
52.82000, 3.138425
52.85000, 1.745823
52.88000, 4.980792
52.91000, 5.328314
52.94000, 3.886415
52.97000, 2.192083
53.00000, 0.1606280
53.03000, 2.644017
53.06000, 1.962586
53.09000, 5.218112
53.12000, 6.589006
53.15000, 4.3692000E-02
53.18000, 1.088263
53.21000, 1.887158
53.24000, 0.5116210
53.27000, 1.871481
53.30000, 2.500652
53.33000, 1.802304
53.36000, 2.210971
53.39000, 4.570261
53.42000, 4.261085
53.45000, 5.972543
53.48000, 6.026589
53.51000, 7.125310
53.54000, 5.918973
53.57000, 3.248155
53.60000, 2.904848
53.63000, 2.566904
53.66000, 2.454662
53.69000, 1.843646
53.72000, 6.087915
53.75000, 4.956892
53.78000, 11.07634
53.81000, 14.27719
53.84000, 15.72648
53.87000, 9.179245
53.90000, 3.162439
53.93000, 4.444078
53.96000, 1.441154
53.99000, 3.478685
54.02000, 4.090288
54.05000, 7.905061
54.08000, 6.709990
54.11000, 8.259289
54.14000, 8.699654
54.17000, 11.25619
54.20000, 5.463108
54.23000, 2.824485
54.26000, 11.38933
54.29000, 14.65852
54.32000, 18.56923
54.35000, 23.14635
54.38000, 29.53621
54.41000, 33.66988
54.44000, 44.53023
54.47000, 58.32909
54.50000, 67.81030
54.53000, 92.39887
54.56000, 112.9631
54.59000, 134.5590
54.62000, 145.4326
54.65000, 156.6480
54.68000, 163.1593
54.71000, 164.5537
54.74000, 161.7124
54.77000, 154.9381
54.80000, 152.5318
54.83000, 146.7996
54.86000, 139.4112
54.89000, 134.1302
54.92000, 121.8158
54.95000, 110.4368
54.98000, 104.2919
55.01000, 95.56789
55.04000, 92.75665
55.07000, 85.73890
55.10000, 86.67369
55.13000, 74.03658
55.16000, 71.65272
55.19000, 64.91135
55.22000, 53.39943
55.25000, 46.81463
55.28000, 41.83210
55.31000, 37.19735
55.34000, 25.59760
55.37000, 18.63700
55.40000, 12.72685
55.43000, 8.711956
55.46000, 5.156460
55.49000, 7.818417
55.52000, 9.125225
55.55000, 8.061005
55.58000, 9.799403
55.61000, 12.81246
55.64000, 12.56377
55.67000, 5.266486
55.70000, 5.751420
55.73000, 9.309049
55.76000, 9.969702
55.79000, 14.67928
55.82000, 17.16054
55.85000, 14.07520
55.88000, 15.45327
55.91000, 19.03958
55.94000, 17.85034
55.97000, 22.25339
56.00000, 21.34590
56.03000, 22.42876
56.06000, 21.57942
56.09000, 23.50944
56.12000, 26.32316
56.15000, 20.64972
56.18000, 20.54073
56.21000, 26.47321
56.24000, 28.70470
56.27000, 25.31704
56.30000, 33.31107
56.33000, 33.99688
56.36000, 33.40405
56.39000, 29.19844
56.42000, 22.61632
56.45000, 22.48965
56.48000, 21.66661
56.51000, 15.29597
56.54000, 14.39583
56.57000, 11.26425
56.60000, 8.189602
56.63000, 6.872653
56.66000, 6.111616
56.69000, 4.073600
56.72000, 3.745674
56.75000, 2.165249
56.78000, 4.525384
56.81000, 4.935147
56.84000, 7.155528
56.87000, 9.676425
56.90000, 9.464190
56.93000, 5.956179
56.96000, 1.050138
56.99000, 0.3776800
57.02000, 0.4220730
57.05000, 3.901341
57.08000, 6.487236
57.11000, 9.326112
57.14000, 10.91848
57.17000, 3.782323
57.20000, 4.540588
57.23000, 5.025343
57.26000, 1.574632
57.29000, 0.1979990
57.32000, 4.448706
57.35000, 2.534813
57.38000, 6.950334
57.41000, 12.57429
57.44000, 20.05763
57.47000, 28.25942
57.50000, 36.06514
57.53000, 39.49823
57.56000, 52.24427
57.59000, 61.28687
57.62000, 66.64983
57.65000, 68.18814
57.68000, 59.43789
57.71000, 51.16404
57.74000, 46.41946
57.77000, 41.83324
57.80000, 39.15529
57.83000, 40.54773
57.86000, 39.79141
57.89000, 43.07540
57.92000, 48.24484
57.95000, 47.85667
57.98000, 47.18202
58.01000, 45.60995
58.04000, 42.19315
58.07000, 29.59041
58.10000, 31.67110
58.13000, 23.32349
58.16000, 13.13246
58.19000, 9.107196
58.22000, 7.040636
58.25000, 6.910737
58.28000, 5.070717
58.31000, 1.310509
58.34000, 4.021057
58.37000, 1.996792
58.40000, 4.866073
58.43000, 2.976795
58.46000, 4.197727
58.49000, 7.159276
58.52000, 0.1581550
58.55000, 0.3524080
58.58000, 1.262457
58.61000, 2.141422
58.64000, 0.4732000
58.67000, 1.055732
58.70000, 0.2837850
58.73000, 1.338294
58.76000, 1.162958
58.79000, 0.6668910
58.82000, 0.7479470
58.85000, 1.742350
58.88000, 0.1714140
58.91000, 3.030169
58.94000, 0.2916330
58.97000, 0.5625780
59.00000, 1.560137
59.03000, 5.115115
59.06000, 4.111716
59.09000, 1.373615
59.12000, 1.124293
59.15000, 0.2396010
59.18000, 2.563575
59.21000, 4.212577
59.24000, 2.359228
59.27000, 0.6963320
59.30000, 0.1367080
59.33000, 0.7359260
59.36000, 1.001889
59.39000, 0.9872790
59.42000, 7.196744
59.45000, 12.32557
59.48000, 15.77059
59.51000, 17.99158
59.54000, 17.06254
59.57000, 18.63110
59.60000, 14.59908
59.63000, 12.10456
59.66000, 10.14352
59.69000, 8.354958
59.72000, 3.909340
59.75000, 3.330735
59.78000, 6.516860
59.81000, 9.391929
59.84000, 15.68994
59.87000, 25.08385
59.90000, 24.18676
59.93000, 18.08962
59.96000, 7.158449
59.99000, 3.702283
60.02000, 4.896296
60.05000, 8.465347
60.08000, 11.43941
60.11000, 11.94058
60.14000, 6.674839
60.17000, 0.3892830
60.20000, 1.507868
60.23000, 5.316740
60.26000, 6.290696
60.29000, 9.673764
60.32000, 11.99110
60.35000, 12.89870
60.38000, 14.49236
60.41000, 8.044954
60.44000, 4.188621
60.47000, 10.14650
60.50000, 14.19978
60.53000, 19.66366
60.56000, 22.22689
60.59000, 22.99632
60.62000, 24.28650
60.65000, 20.47341
60.68000, 23.67152
60.71000, 20.61667
60.74000, 22.87681
60.77000, 19.56185
60.80000, 16.93004
60.83000, 17.46472
60.86000, 17.15091
60.89000, 14.60640
60.92000, 11.70731
60.95000, 15.12529
60.98000, 15.10296
61.01000, 11.42779
61.04000, 12.67877
61.07000, 9.384819
61.10000, 9.776399
61.13000, 12.18044
61.16000, 13.39479
61.19000, 13.48840
61.22000, 13.88541
61.25000, 11.15029
61.28000, 12.83697
61.31000, 9.056636
61.34000, 8.228851
61.37000, 5.951266
61.40000, 5.665019
61.43000, 4.999571
61.46000, 6.551605
61.49000, 5.828536
61.52000, 7.081492
61.55000, 10.20422
61.58000, 12.45520
61.61000, 11.47423
61.64000, 4.882822
61.67000, 2.185619
61.70000, 4.820618
61.73000, 0.1186830
61.76000, 2.292368
61.79000, 4.371473
61.82000, 3.634757
61.85000, 8.452977
61.88000, 4.473342
61.91000, 1.251808
61.94000, 0.2153480
61.97000, 0.8678480
62.00000, 2.7520000E-03
62.03000, 2.1083999E-02
62.06000, 1.277930
62.09000, 2.102925
62.12000, 2.070224
62.15000, 2.545010
62.18000, 2.122753
62.21000, 1.390770
62.24000, 2.072696
62.27000, 0.8863290
62.30000, 2.0750000E-03
62.33000, 2.280351
62.36000, 0.0000000E+00
##END=



